0.000000,0.004267
1.928467,0.022209
3.856935,0.049274
5.785402,0.051629
7.713869,0.037128
9.642336,0.025024
11.570804,0.017709
13.499271,0.012091
15.427738,0.007929
17.356205,0.005416
19.284673,0.002994
21.213140,0.000574
23.141607,-0.001632
25.070075,-0.003576
26.998542,-0.005279
28.927009,-0.006113
30.855476,-0.005249
32.783944,-0.002979
34.712411,-0.000747
36.640878,0.000681
38.569345,0.001594
40.497813,0.002250
42.426280,0.002483
44.354747,0.002157
46.283215,0.001463
48.211682,0.000749
50.140149,0.000253
52.068616,0.000152
53.997084,0.000567
55.925551,0.001430
57.854018,0.002311
59.782485,0.002633
61.710953,0.002175
63.639420,0.001121
65.567887,0.000036
67.496355,-0.000501
69.424822,-0.000045
71.353289,0.001381
73.281756,0.002964
75.210224,0.003659
77.138691,0.003237
79.067158,0.002247
80.995625,0.001167
82.924093,0.000211
84.852560,-0.000435
86.781027,-0.000541
88.709495,-0.000024
90.637962,0.000811
92.566429,0.001355
94.494896,0.001153
96.423364,0.000271
98.351831,-0.000767
100.280298,-0.001418
102.208766,-0.001450
104.137233,-0.000938
106.065700,-0.000125
107.994167,0.000743
109.922635,0.001417
111.851102,0.001596
113.779569,0.001088
115.708036,0.000152
117.636504,-0.000744
119.564971,-0.001370
121.493438,-0.001571
123.421906,-0.001151
125.350373,-0.000340
127.278840,0.000276
129.207307,0.000536
131.135775,0.000663
133.064242,0.000704
134.992709,0.000576
136.921176,0.000256
138.849644,-0.000238
140.778111,-0.000695
142.706578,-0.000788
144.635046,-0.000468
146.563513,-0.000010
148.491980,0.000209
150.420447,-0.000038
152.348915,-0.000554
154.277382,-0.000899
156.205849,-0.000899
158.134316,-0.000662
160.062784,-0.000253
161.991251,0.000331
163.919718,0.000903
165.848186,0.001085
167.776653,0.000691
169.705120,-0.000037
171.633587,-0.000665
173.562055,-0.000993
175.490522,-0.001046
177.418989,-0.000855
179.347456,-0.000468
181.275924,0.000008
183.204391,0.000440
185.132858,0.000607
187.061326,0.000439
188.989793,0.000203
190.918260,0.000076
192.846727,-0.000096
194.775195,-0.000328
196.703662,-0.000338
198.632129,-0.000101
200.560596,0.000045
202.489064,-0.000041
204.417531,-0.000146
206.345998,-0.000182
208.274466,-0.000281
210.202933,-0.000429
212.131400,-0.000449
214.059867,-0.000233
215.988335,0.000209
217.916802,0.000722
219.845269,0.001013
221.773736,0.000928
223.702204,0.000589
225.630671,0.000123
227.559138,-0.000433
229.487606,-0.000851
231.416073,-0.000784
233.344540,-0.000263
235.273007,0.000308
237.201475,0.000643
239.129942,0.000680
241.058409,0.000418
242.986876,-0.000026
244.915344,-0.000442
246.843811,-0.000707
248.772278,-0.000784
250.700746,-0.000699
252.629213,-0.000567
254.557680,-0.000462
256.486147,-0.000372
258.414615,-0.000363
260.343082,-0.000501
262.271549,-0.000616
264.200016,-0.000459
266.128484,-0.000030
268.056951,0.000475
269.985418,0.000849
271.913886,0.000885
273.842353,0.000525
275.770820,-0.000004
277.699287,-0.000492
279.627755,-0.000900
281.556222,-0.001105
283.484689,-0.000929
285.413157,-0.000392
287.341624,0.000270
289.270091,0.000780
291.198558,0.000935
293.127026,0.000718
295.055493,0.000305
296.983960,-0.000130
298.912427,-0.000560
300.840895,-0.000872
302.769362,-0.000799
304.697829,-0.000349
306.626297,0.000068
308.554764,0.000183
310.483231,0.000106
312.411698,-0.000049
314.340166,-0.000273
316.268633,-0.000454
318.197100,-0.000409
320.125567,-0.000046
322.054035,0.000543
323.982502,0.001078
325.910969,0.001206
327.839437,0.000748
329.767904,-0.000032
331.696371,-0.000624
333.624838,-0.000794
335.553306,-0.000685
337.481773,-0.000476
339.410240,-0.000202
341.338707,0.000195
343.267175,0.000637
345.195642,0.000990
347.124109,0.001017
349.052577,0.000521
350.981044,-0.000238
352.909511,-0.000617
354.837978,-0.000379
356.766446,0.000146
358.694913,0.000874
360.623380,0.001946
362.551847,0.003238
364.480315,0.004612
366.408782,0.006131
368.337249,0.007753
370.265717,0.009259
372.194184,0.010028
374.122651,0.010145
376.051118,0.010713
377.979586,0.012473
379.908053,0.014346
381.836520,0.015163
383.764987,0.015498
385.693455,0.016939
387.621922,0.020013
389.550389,0.023616
391.478857,0.025927
393.407324,0.025780
395.335791,0.023519
397.264258,0.021664
399.192726,0.023428
401.121193,0.029142
403.049660,0.035744
404.978127,0.040733
406.906595,0.043999
408.835062,0.046481
410.763529,0.048853
412.691997,0.050836
414.620464,0.050354
416.548931,0.045995
418.477398,0.041600
420.405866,0.042722
422.334333,0.048911
424.262800,0.055981
426.191267,0.062177
428.119735,0.067320
430.048202,0.071067
431.976669,0.073487
433.905137,0.074956
435.833604,0.076152
437.762071,0.077666
439.690538,0.078755
441.619006,0.079225
443.547473,0.080617
445.475940,0.083622
447.404408,0.087152
449.332875,0.089962
451.261342,0.091519
453.189809,0.091647
455.118277,0.090011
457.046744,0.088672
458.975211,0.091637
460.903678,0.098701
462.832146,0.105530
464.760613,0.109628
466.689080,0.111163
468.617548,0.110661
470.546015,0.109090
472.474482,0.109493
474.402949,0.114146
476.331417,0.120778
478.259884,0.125779
480.188351,0.128124
482.116818,0.128703
484.045286,0.129764
485.973753,0.132878
487.902220,0.136594
489.830688,0.138874
491.759155,0.140548
493.687622,0.143426
495.616089,0.147041
497.544557,0.149096
499.473024,0.148438
501.401491,0.147049
503.329958,0.147879
505.258426,0.150835
507.186893,0.154330
509.115360,0.158103
511.043828,0.161597
512.972295,0.162949
514.900762,0.161466
516.829229,0.159739
518.757697,0.161656
520.686164,0.166986
522.614631,0.171149
524.543098,0.172390
526.471566,0.174484
528.400033,0.179680
530.328500,0.185396
532.256968,0.189219
534.185435,0.191679
536.113902,0.194077
538.042369,0.196937
539.970837,0.199976
541.899304,0.202502
543.827771,0.204014
545.756238,0.205227
547.684706,0.207524
549.613173,0.211273
551.541640,0.215544
553.470108,0.219369
555.398575,0.222676
557.327042,0.225910
559.255509,0.229013
561.183977,0.231684
563.112444,0.233787
565.040911,0.235233
566.969378,0.236500
568.897846,0.238889
570.826313,0.242643
572.754780,0.245912
574.683248,0.247762
576.611715,0.249953
578.540182,0.253584
580.468649,0.257932
582.397117,0.262601
584.325584,0.267563
586.254051,0.272126
588.182518,0.275091
590.110986,0.276359
592.039453,0.278380
593.967920,0.282823
595.896388,0.287631
597.824855,0.290359
599.753322,0.291533
601.681789,0.292892
603.610257,0.295304
605.538724,0.299397
607.467191,0.305763
609.395658,0.313473
611.324126,0.320470
613.252593,0.325291
615.181060,0.328408
617.109528,0.332275
619.037995,0.338593
620.966462,0.345763
622.894929,0.351467
624.823397,0.355986
626.751864,0.360892
628.680331,0.365977
630.608799,0.369713
632.537266,0.371781
634.465733,0.373679
636.394200,0.376632
638.322668,0.380140
640.251135,0.382928
642.179602,0.384494
644.108069,0.384860
646.036537,0.384171
647.965004,0.383340
649.893471,0.383800
651.821939,0.385799
653.750406,0.388418
655.678873,0.391091
657.607340,0.394398
659.535808,0.399316
661.464275,0.403844
663.392742,0.395414
665.321209,0.361356
667.249677,0.324041
669.178144,0.326461
671.106611,0.365900
673.035079,0.400190
674.963546,0.411852
676.892013,0.412742
678.820480,0.412503
680.748948,0.412703
682.677415,0.412576
684.605882,0.411795
686.534349,0.412387
688.462817,0.417710
690.391284,0.428242
692.319751,0.440363
694.248219,0.450583
696.176686,0.458548
698.105153,0.465367
700.033620,0.471379
701.962088,0.476064
703.890555,0.479546
705.819022,0.482853
707.747489,0.486490
709.675957,0.489911
711.604424,0.492664
713.532891,0.494866
715.461359,0.496225
717.389826,0.496076
719.318293,0.495710
721.246760,0.497758
723.175228,0.501992
725.103695,0.505705
727.032162,0.507919
728.960629,0.509643
730.889097,0.511646
732.817564,0.513837
734.746031,0.515777
736.674499,0.517151
738.602966,0.517987
740.531433,0.518618
742.459900,0.519437
744.388368,0.520571
746.316835,0.521860
748.245302,0.523008
750.173769,0.523793
752.102237,0.524252
754.030704,0.524624
755.959171,0.525070
757.887639,0.525545
759.816106,0.525927
761.744573,0.526130
763.673040,0.526104
765.601508,0.525868
767.529975,0.525471
769.458442,0.524931
771.386909,0.524188
773.315377,0.523124
775.243844,0.521751
777.172311,0.520266
779.100779,0.518800
781.029246,0.517292
782.957713,0.515729
784.886180,0.514292
786.814648,0.513128
788.743115,0.512177
790.671582,0.511361
792.600049,0.510706
794.528517,0.510276
796.456984,0.510164
798.385451,0.510494
800.313919,0.511235
802.242386,0.512159
804.170853,0.513093
806.099320,0.513977
808.027788,0.514680
809.956255,0.514918
811.884722,0.514270
813.813190,0.512141
815.741657,0.507605
817.670124,0.499492
819.598591,0.487679
821.527059,0.475071
823.455526,0.467381
825.383993,0.469400
827.312460,0.481499
829.240928,0.499955
831.169395,0.519820
833.097862,0.537280
835.026330,0.550604
836.954797,0.559925
838.883264,0.566345
840.811731,0.571019
842.740199,0.574722
844.668666,0.577888
846.597133,0.580859
848.525600,0.583998
850.454068,0.587524
852.382535,0.591362
854.311002,0.595260
856.239470,0.598955
858.167937,0.602198
860.096404,0.604707
862.024871,0.606180
863.953339,0.606344
865.881806,0.604939
867.810273,0.601854
869.738740,0.597612
871.667208,0.593600
873.595675,0.591511
875.524142,0.592621
877.452610,0.597501
879.381077,0.605939
881.309544,0.616933
883.238011,0.629070
885.166479,0.641076
887.094946,0.652060
889.023413,0.661583
890.951880,0.669640
892.880348,0.676523
894.808815,0.682669
896.737282,0.688529
898.665750,0.694467
900.594217,0.700658
902.522684,0.707100
904.451151,0.713780
906.379619,0.720869
908.308086,0.728731
910.236553,0.737627
912.165020,0.747324
914.093488,0.757146
916.021955,0.766441
917.950422,0.774888
919.878890,0.782418
921.807357,0.789130
923.735824,0.795260
925.664291,0.801032
927.592759,0.806555
929.521226,0.811890
931.449693,0.817141
933.378160,0.822373
935.306628,0.827602
937.235095,0.832845
939.163562,0.838065
941.092030,0.843146
943.020497,0.848056
944.948964,0.852976
946.877431,0.858207
948.805899,0.863937
950.734366,0.870144
952.662833,0.876720
954.591300,0.883572
956.519768,0.890559
958.448235,0.897523
960.376702,0.904414
962.305170,0.911207
964.233637,0.917743
966.162104,0.923823
968.090571,0.929424
970.019039,0.934663
971.947506,0.939594
973.875973,0.944193
975.804440,0.948418
977.732908,0.952281
979.661375,0.955875
981.589842,0.959365
983.518310,0.962890
985.446777,0.966506
987.375244,0.970183
989.303711,0.973824
991.232179,0.977318
993.160646,0.980627
995.089113,0.983812
997.017581,0.986962
998.946048,0.990100
1000.874515,0.993153
1002.802982,0.996046
1004.731450,0.998831
1006.659917,1.001649
1008.588384,1.004556
1010.516851,1.007408
1012.445319,1.009980
1014.373786,1.012170
1016.302253,1.013944
1018.230721,1.015195
1020.159188,1.015949
1022.087655,1.016470
1024.016122,1.016914
1025.944590,1.017167
1027.873057,1.017142
1029.801524,1.016981
1031.729991,1.016869
1033.658459,1.016829
1035.586926,1.016746
1037.515393,1.016369
1039.443861,1.015088
1041.372328,1.011386
1043.300795,1.002661
1045.229262,0.987103
1047.157730,0.967702
1049.086197,0.953725
1051.014664,0.955083
1052.943131,0.973560
1054.871599,1.000633
1056.800066,1.024972
1058.728533,1.041224
1060.657001,1.050797
1062.585468,1.056886
1064.513935,1.061417
1066.442402,1.065240
1068.370870,1.068650
1070.299337,1.071592
1072.227804,1.074032
1074.156271,1.076385
1076.084739,1.079476
1078.013206,1.083967
1079.941673,1.089823
1081.870141,1.096386
1083.798608,1.102812
1085.727075,1.108580
1087.655542,1.113707
1089.584010,1.118537
1091.512477,1.123430
1093.440944,1.128590
1095.369411,1.133982
1097.297879,1.139389
1099.226346,1.144546
1101.154813,1.149229
1103.083281,1.153428
1105.011748,1.157667
1106.940215,1.162761
1108.868682,1.169063
1110.797150,1.176322
1112.725617,1.184173
1114.654084,1.192322
1116.582551,1.200420
1118.511019,1.208160
1120.439486,1.215540
1122.367953,1.222872
1124.296421,1.230383
1126.224888,1.237975
1128.153355,1.245446
1130.081822,1.252564
1132.010290,1.259045
1133.938757,1.264835
1135.867224,1.270380
1137.795691,1.275989
1139.724159,1.281425
1141.652626,1.286718
1143.581093,1.292499
1145.509561,1.299148
1147.438028,1.306293
1149.366495,1.313312
1151.294962,1.320037
1153.223430,1.326818
1155.151897,1.334015
1157.080364,1.341795
1159.008832,1.350344
1160.937299,1.359731
1162.865766,1.369700
1164.794233,1.379857
1166.722701,1.389815
1168.651168,1.398987
1170.579635,1.406587
1172.508102,1.412474
1174.436570,1.417499
1176.365037,1.422106
1178.293504,1.426238
1180.221972,1.431031
1182.150439,1.437523
1184.078906,1.444502
1186.007373,1.450668
1187.935841,1.456534
1189.864308,1.462551
1191.792775,1.468172
1193.721242,1.472983
1195.649710,1.476962
1197.578177,1.480381
1199.506644,1.483825
1201.435112,1.487579
1203.363579,1.491462
1205.292046,1.495332
1207.220513,1.499165
1209.148981,1.503101
1211.077448,1.508192
1213.005915,1.515761
1214.934382,1.525232
1216.862850,1.534688
1218.791317,1.543235
1220.719784,1.550565
1222.648252,1.556229
1224.576719,1.561123
1226.505186,1.566715
1228.433653,1.572617
1230.362121,1.577577
1232.290588,1.581569
1234.219055,1.585268
1236.147522,1.588989
1238.075990,1.592666
1240.004457,1.595883
1241.932924,1.598536
1243.861392,1.601715
1245.789859,1.606257
1247.718326,1.611103
1249.646793,1.615002
1251.575261,1.618161
1253.503728,1.620822
1255.432195,1.621480
1257.360662,1.618389
1259.289130,1.614125
1261.217597,1.614042
1263.146064,1.618177
1265.074532,1.621880
1267.002999,1.623280
1268.931466,1.624743
1270.859933,1.630666
1272.788401,1.643031
1274.716868,1.657027
1276.645335,1.666263
1278.573802,1.670425
1280.502270,1.672994
1282.430737,1.674788
1284.359204,1.673481
1286.287672,1.669805
1288.216139,1.669821
1290.144606,1.676796
1292.073073,1.686056
1294.001541,1.692098
1295.930008,1.695566
1297.858475,1.699952
1299.786942,1.705618
1301.715410,1.710354
1303.643877,1.712680
1305.572344,1.712762
1307.500812,1.711046
1309.429279,1.705003
1311.357746,1.693147
1313.286213,1.680924
1315.214681,1.671310
1317.143148,1.664426
1319.071615,1.670529
1321.000082,1.695384
1322.928550,1.723744
1324.857017,1.740125
1326.785484,1.745201
1328.713952,1.745500
1330.642419,1.742993
1332.570886,1.729563
1334.499353,1.688102
1336.427821,1.617791
1338.356288,1.563438
1340.284755,1.580068
1342.213223,1.655600
1344.141690,1.723622
1346.070157,1.750297
1347.998624,1.752882
1349.927092,1.752700
1351.855559,1.752106
1353.784026,1.748671
1355.712493,1.742185
1357.640961,1.714952
1359.569428,1.647303
1361.497895,1.580452
1363.426363,1.586337
1365.354830,1.652080
1367.283297,1.700899
1369.211764,1.699058
1371.140232,1.652806
1373.068699,1.595330
1374.997166,1.589356
1376.925633,1.645763
1378.854101,1.708133
1380.782568,1.737551
1382.711035,1.720356
1384.639503,1.653706
1386.567970,1.592047
1388.496437,1.598916
1390.424904,1.623183
1392.353372,1.568665
1394.281839,1.462986
1396.210306,1.404307
1398.138773,1.425750
1400.067241,1.495515
1401.995708,1.554830
1403.924175,1.580053
1405.852643,1.615535
1407.781110,1.678511
1409.709577,1.728516
1411.638044,1.743281
1413.566512,1.703958
1415.494979,1.576630
1417.423446,1.417940
1419.351913,1.369941
1421.280381,1.460311
1423.208848,1.579011
1425.137315,1.651368
1427.065783,1.666013
1428.994250,1.642113
1430.922717,1.617924
1432.851184,1.567312
1434.779652,1.465438
1436.708119,1.425505
1438.636586,1.533524
1440.565053,1.683138
1442.493521,1.741934
1444.421988,1.693889
1446.350455,1.598026
1448.278923,1.533085
1450.207390,1.513908
1452.135857,1.447266
1454.064324,1.260662
1455.992792,1.069061
1457.921259,1.085426
1459.849726,1.306017
1461.778193,1.490989
1463.706661,1.534952
1465.635128,1.559600
1467.563595,1.590012
1469.492063,1.497273
1471.420530,1.305176
1473.348997,1.215662
1475.277464,1.315704
1477.205932,1.498542
1479.134399,1.635389
1481.062866,1.686719
1482.991333,1.657930
1484.919801,1.533412
1486.848268,1.334330
1488.776735,1.180862
1490.705203,1.168083
1492.633670,1.218053
1494.562137,1.203711
1496.490604,1.169456
1498.419072,1.241279
1500.347539,1.377259
1502.276006,1.375769
1504.204473,1.151010
1506.132941,0.912188
1508.061408,0.918006
1509.989875,1.132142
1511.918343,1.316048
1513.846810,1.333783
1515.775277,1.231950
1517.703744,1.108352
1519.632212,1.013212
1521.560679,0.991478
1523.489146,1.069737
1525.417614,1.202685
1527.346081,1.337664
1529.274548,1.418434
1531.203015,1.393281
1533.131483,1.326668
1535.059950,1.270424
1536.988417,1.124260
1538.916884,0.897059
1540.845352,0.798981
1542.773819,0.928520
1544.702286,1.176322
1546.630754,1.389478
1548.559221,1.482316
1550.487688,1.465093
1552.416155,1.371197
1554.344623,1.188553
1556.273090,0.936945
1558.201557,0.782706
1560.130024,0.907675
1562.058492,1.222651
1563.986959,1.459273
1565.915426,1.503011
1567.843894,1.443864
1569.772361,1.427374
1571.700828,1.464293
1573.629295,1.429645
1575.557763,1.357748
1577.486230,1.426325
1579.414697,1.615916
1581.343164,1.758588
1583.271632,1.806083
1585.200099,1.809745
1587.128566,1.799245
1589.057034,1.779953
1590.985501,1.755151
1592.913968,1.730008
1594.842435,1.716913
1596.770903,1.719536
1598.699370,1.716993
1600.627837,1.693964
1602.556304,1.663521
1604.484772,1.635443
1606.413239,1.605509
1608.341706,1.587613
1610.270174,1.590444
1612.198641,1.554951
1614.127108,1.429077
1616.055575,1.313704
1617.984043,1.333160
1619.912510,1.404403
1621.840977,1.401201
1623.769444,1.376448
1625.697912,1.407504
1627.626379,1.474727
1629.554846,1.525953
1631.483314,1.470886
1633.411781,1.277909
1635.340248,1.121834
1637.268715,1.182280
1639.197183,1.375368
1641.125650,1.479566
1643.054117,1.386701
1644.982584,1.181727
1646.911052,1.047514
1648.839519,1.005399
1650.767986,0.913003
1652.696454,0.827814
1654.624921,0.961191
1656.553388,1.254266
1658.481855,1.439623
1660.410323,1.434495
1662.338790,1.382804
1664.267257,1.376707
1666.195724,1.333084
1668.124192,1.213506
1670.052659,1.133959
1671.981126,1.141472
1673.909594,1.172720
1675.838061,1.221537
1677.766528,1.274276
1679.694995,1.225428
1681.623463,1.047283
1683.551930,0.904955
1685.480397,0.958929
1687.408864,1.145752
1689.337332,1.299314
1691.265799,1.330595
1693.194266,1.216829
1695.122734,1.022147
1697.051201,0.864451
1698.979668,0.806662
1700.908135,0.864237
1702.836603,0.990757
1704.765070,1.103965
1706.693537,1.201948
1708.622005,1.297416
1710.550472,1.323385
1712.478939,1.223470
1714.407406,1.042177
1716.335874,0.916597
1718.264341,0.967501
1720.192808,1.152686
1722.121275,1.318694
1724.049743,1.392801
1725.978210,1.391581
1727.906677,1.320110
1729.835145,1.176346
1731.763612,1.007458
1733.692079,0.925078
1735.620546,0.982424
1737.549014,1.075802
1739.477481,1.112331
1741.405948,1.123288
1743.334415,1.132862
1745.262883,1.108115
1747.191350,1.042887
1749.119817,0.995651
1751.048285,1.032446
1752.976752,1.126737
1754.905219,1.187686
1756.833686,1.190064
1758.762154,1.167477
1760.690621,1.149747
1762.619088,1.163489
1764.547555,1.186078
1766.476023,1.151866
1768.404490,1.051245
1770.332957,0.945098
1772.261425,0.913324
1774.189892,0.982659
1776.118359,1.078810
1778.046826,1.119424
1779.975294,1.113358
1781.903761,1.107282
1783.832228,1.114651
1785.760695,1.121688
1787.689163,1.093562
1789.617630,1.009522
1791.546097,0.929154
1793.474565,0.927920
1795.403032,0.977153
1797.331499,0.996846
1799.259966,0.979406
1801.188434,0.976408
1803.116901,1.005473
1805.045368,1.030123
1806.973835,1.017630
1808.902303,0.979750
1810.830770,0.952842
1812.759237,0.948671
1814.687705,0.942786
1816.616172,0.918938
1818.544639,0.888392
1820.473106,0.854867
1822.401574,0.809084
1824.330041,0.759394
1826.258508,0.719536
1828.186975,0.691873
1830.115443,0.690259
1832.043910,0.719805
1833.972377,0.747375
1835.900845,0.749224
1837.829312,0.735239
1839.757779,0.704593
1841.686246,0.648937
1843.614714,0.598532
1845.543181,0.593966
1847.471648,0.625102
1849.400115,0.653619
1851.328583,0.663880
1853.257050,0.660557
1855.185517,0.650149
1857.113985,0.637223
1859.042452,0.625018
1860.970919,0.613627
1862.899386,0.595398
1864.827854,0.559677
1866.756321,0.514634
1868.684788,0.492120
1870.613256,0.507544
1872.541723,0.535746
1874.470190,0.548397
1876.398657,0.544700
1878.327125,0.535393
1880.255592,0.525192
1882.184059,0.514125
1884.112526,0.500812
1886.040994,0.482486
1887.969461,0.461644
1889.897928,0.448730
1891.826396,0.445867
1893.754863,0.443604
1895.683330,0.439245
1897.611797,0.436107
1899.540265,0.432136
1901.468732,0.424722
1903.397199,0.414736
1905.325666,0.402407
1907.254134,0.388572
1909.182601,0.377818
1911.111068,0.372798
1913.039536,0.367216
1914.968003,0.353272
1916.896470,0.335315
1918.824937,0.323490
1920.753405,0.317593
1922.681872,0.312722
1924.610339,0.309104
1926.538806,0.305475
1928.467274,0.298296
1930.395741,0.288088
1932.324208,0.277370
1934.252676,0.267199
1936.181143,0.257095
1938.109610,0.244992
1940.038077,0.229857
1941.966545,0.215761
1943.895012,0.207832
1945.823479,0.204613
1947.751946,0.201035
1949.680414,0.195218
1951.608881,0.187856
1953.537348,0.179562
1955.465816,0.170541
1957.394283,0.160953
1959.322750,0.151558
1961.251217,0.143345
1963.179685,0.136094
1965.108152,0.129160
1967.036619,0.123396
1968.965086,0.119662
1970.893554,0.116760
1972.822021,0.113317
1974.750488,0.110001
1976.678956,0.109070
1978.607423,0.112348
1980.535890,0.119045
1982.464357,0.126184
1984.392825,0.131424
1986.321292,0.134315
1988.249759,0.135253
1990.178226,0.135194
1992.106694,0.135954
1994.035161,0.138194
1995.963628,0.140016
1997.892096,0.139568
1999.820563,0.136894
2001.749030,0.132490
2003.677497,0.126676
2005.605965,0.120604
2007.534432,0.116080
2009.462899,0.113817
2011.391366,0.112754
2013.319834,0.111407
2015.248301,0.109466
2017.176768,0.107899
2019.105236,0.107347
2021.033703,0.107210
2022.962170,0.106799
2024.890637,0.106213
2026.819105,0.105786
2028.747572,0.105649
2030.676039,0.105935
2032.604506,0.107121
2034.532974,0.109917
2036.461441,0.114399
2038.389908,0.119700
2040.318376,0.125069
2042.246843,0.130540
2044.175310,0.136345
2046.103777,0.143053
2048.032245,0.152249
2049.960712,0.164686
2051.889179,0.177951
2053.817647,0.188825
2055.746114,0.196858
2057.674581,0.203276
2059.603048,0.208670
2061.531516,0.213139
2063.459983,0.217266
2065.388450,0.222173
2067.316917,0.228280
2069.245385,0.234840
2071.173852,0.241316
2073.102319,0.247944
2075.030787,0.255022
2076.959254,0.262531
2078.887721,0.270257
2080.816188,0.277814
2082.744656,0.284688
2084.673123,0.290377
2086.601590,0.294463
2088.530057,0.296688
2090.458525,0.296869
2092.386992,0.294950
2094.315459,0.291964
2096.243927,0.290162
2098.172394,0.290912
2100.100861,0.293552
2102.029328,0.296792
2103.957796,0.299973
2105.886263,0.303027
2107.814730,0.306111
2109.743197,0.309304
2111.671665,0.312468
2113.600132,0.315204
2115.528599,0.316747
2117.457067,0.316153
2119.385534,0.312957
2121.314001,0.307344
2123.242468,0.299590
2125.170936,0.289695
2127.099403,0.277490
2129.027870,0.262780
2130.956337,0.245743
2132.884805,0.227694
2134.813272,0.211085
2136.741739,0.197627
2138.670207,0.186876
2140.598674,0.177317
2142.527141,0.168006
2144.455608,0.158856
2146.384076,0.150148
2148.312543,0.142007
2150.241010,0.134023
2152.169477,0.125339
2154.097945,0.115370
2156.026412,0.104976
2157.954879,0.097213
2159.883347,0.095365
2161.811814,0.099477
2163.740281,0.106573
2165.668748,0.114074
2167.597216,0.120940
2169.525683,0.126509
2171.454150,0.130227
2173.382617,0.132277
2175.311085,0.133648
2177.239552,0.135151
2179.168019,0.136736
2181.096487,0.138462
2183.024954,0.141120
2184.953421,0.145160
2186.881888,0.150052
2188.810356,0.155065
2190.738823,0.159878
2192.667290,0.164438
2194.595757,0.168762
2196.524225,0.172892
2198.452692,0.176875
2200.381159,0.180720
2202.309627,0.184459
2204.238094,0.188190
2206.166561,0.191964
2208.095028,0.195728
2210.023496,0.199458
2211.951963,0.203252
2213.880430,0.207229
2215.808897,0.211409
2217.737365,0.215730
2219.665832,0.220153
2221.594299,0.224734
2223.522767,0.229557
2225.451234,0.234683
2227.379701,0.240115
2229.308168,0.245817
2231.236636,0.251752
2233.165103,0.257939
2235.093570,0.264366
2237.022038,0.270932
2238.950505,0.277582
2240.878972,0.284376
2242.807439,0.291375
2244.735907,0.298448
2246.664374,0.305318
2248.592841,0.311800
2250.521308,0.317892
2252.449776,0.323888
2254.378243,0.330581
2256.306710,0.338719
2258.235178,0.348040
2260.163645,0.357546
2262.092112,0.366667
2264.020579,0.375760
2265.949047,0.385656
2267.877514,0.396958
2269.805981,0.409733
2271.734448,0.423817
2273.662916,0.439209
2275.591383,0.456106
2277.519850,0.474871
2279.448318,0.495950
2281.376785,0.519527
2283.305252,0.545193
2285.233719,0.572047
2287.162187,0.599046
2289.090654,0.625167
2291.019121,0.649502
2292.947588,0.671417
2294.876056,0.690714
2296.804523,0.707505
2298.732990,0.721890
2300.661458,0.733749
2302.589925,0.742614
2304.518392,0.747861
2306.446859,0.749325
2308.375327,0.747664
2310.303794,0.744414
2312.232261,0.741524
2314.160728,0.739200
2316.089196,0.734852
2318.017663,0.727446
2319.946130,0.722528
2321.874598,0.728591
2323.803065,0.744815
2325.731532,0.756321
2327.659999,0.750056
2329.588467,0.731183
2331.516934,0.713704
2333.445401,0.702074
2335.373868,0.691985
2337.302336,0.681707
2339.230803,0.674951
2341.159270,0.678477
2343.087738,0.704286
2345.016205,0.763855
2346.944672,0.836821
2348.873139,0.863028
2350.801607,0.806964
2352.730074,0.703713
2354.658541,0.609308
2356.587008,0.545816
2358.515476,0.509326
2360.443943,0.492798
2362.372410,0.491660
2364.300878,0.503375
2366.229345,0.526995
2368.157812,0.562293
2370.086279,0.608966
2372.014747,0.666237
2373.943214,0.732555
2375.871681,0.805025
2377.800148,0.878379
2379.728616,0.945353
2381.657083,0.998260
2383.585550,1.032421
2385.514018,1.048063
2387.442485,1.049333
2389.370952,1.041652
2391.299419,1.029512
2393.227887,1.015703
2395.156354,1.001579
2397.084821,0.987659
2399.013288,0.974001
2400.941756,0.960453
2402.870223,0.946976
2404.798690,0.934131
2406.727158,0.923124
2408.655625,0.914668
2410.584092,0.908022
2412.512559,0.901808
2414.441027,0.895315
2416.369494,0.888618
2418.297961,0.882011
2420.226429,0.875668
2422.154896,0.869616
2424.083363,0.863926
2426.011830,0.858771
2427.940298,0.854253
2429.868765,0.850308
2431.797232,0.846856
2433.725699,0.843911
2435.654167,0.841522
2437.582634,0.839728
2439.511101,0.838544
2441.439569,0.837956
2443.368036,0.837985
2445.296503,0.838706
2447.224970,0.840140
2449.153438,0.842258
2451.081905,0.845081
2453.010372,0.848518
2454.938839,0.852149
2456.867307,0.855350
2458.795774,0.857628
2460.724241,0.858828
2462.652709,0.859105
2464.581176,0.858716
2466.509643,0.857858
2468.438110,0.856675
2470.366578,0.855283
2472.295045,0.853769
2474.223512,0.852200
2476.151979,0.850660
2478.080447,0.849197
2480.008914,0.847795
2481.937381,0.846476
2483.865849,0.845319
2485.794316,0.844401
2487.722783,0.843774
2489.651250,0.843478
2491.579718,0.843513
2493.508185,0.843793
2495.436652,0.844120
2497.365119,0.844299
2499.293587,0.844322
2501.222054,0.844331
2503.150521,0.844402
2505.078989,0.844502
2507.007456,0.844616
2508.935923,0.844778
2510.864390,0.845010
2512.792858,0.845314
2514.721325,0.845673
2516.649792,0.846056
2518.578259,0.846503
2520.506727,0.847212
2522.435194,0.848313
2524.363661,0.849647
2526.292129,0.851041
2528.220596,0.852543
2530.149063,0.854257
2532.077530,0.856177
2534.005998,0.858255
2535.934465,0.860497
2537.862932,0.862963
2539.791399,0.865691
2541.719867,0.868721
2543.648334,0.872172
2545.576801,0.876052
2547.505269,0.880162
2549.433736,0.884393
2551.362203,0.888869
2553.290670,0.893700
2555.219138,0.898835
2557.147605,0.904190
2559.076072,0.909807
2561.004539,0.915827
2562.933007,0.922295
2564.861474,0.929135
2566.789941,0.936341
2568.718409,0.943958
2570.646876,0.951936
2572.575343,0.960199
2574.503810,0.968843
2576.432278,0.978044
2578.360745,0.987809
2580.289212,0.998013
2582.217680,1.008685
2584.146147,1.019996
2586.074614,1.032031
2588.003081,1.044770
2589.931549,1.058184
2591.860016,1.072361
2593.788483,1.087479
2595.716950,1.103567
2597.645418,1.120484
2599.573885,1.138174
2601.502352,1.156686
2603.430820,1.176016
2605.359287,1.196172
2607.287754,1.217228
2609.216221,1.239245
2611.144689,1.262233
2613.073156,1.286223
2615.001623,1.311321
2616.930090,1.337654
2618.858558,1.365189
2620.787025,1.393709
2622.715492,1.423141
2624.643960,1.453800
2626.572427,1.486094
2628.500894,1.520028
2630.429361,1.555175
2632.357829,1.591236
2634.286296,1.628303
2636.214763,1.666668
2638.143230,1.706655
2640.071698,1.748334
2642.000165,1.791241
2643.928632,1.834795
2645.857100,1.878720
2647.785567,1.922898
2649.714034,1.967120
2651.642501,2.011009
2653.570969,2.054026
2655.499436,2.095436
2657.427903,2.134163
2659.356370,2.168704
2661.284838,2.197237
2663.213305,2.218219
2665.141772,2.231463
2667.070240,2.238502
2668.998707,2.241496
2670.927174,2.242163
2672.855641,2.241644
2674.784109,2.240465
2676.712576,2.238894
2678.641043,2.237757
2680.569510,2.237968
2682.497978,2.239095
2684.426445,2.239705
2686.354912,2.239143
2688.283380,2.237930
2690.211847,2.236648
2692.140314,2.235367
2694.068781,2.233903
2695.997249,2.232112
2697.925716,2.230200
2699.854183,2.228606
2701.782650,2.227447
2703.711118,2.226366
2705.639585,2.224932
2707.568052,2.223150
2709.496520,2.221553
2711.424987,2.220455
2713.353454,2.219480
2715.281921,2.218212
2717.210389,2.216434
2719.138856,2.213912
2721.067323,2.210772
2722.995790,2.207649
2724.924258,2.205504
2726.852725,2.205116
2728.781192,2.205848
2730.709660,2.205984
2732.638127,2.204708
2734.566594,2.202529
2736.495061,2.200458
2738.423529,2.199148
2740.351996,2.198167
2742.280463,2.196484
2744.208930,2.193569
2746.137398,2.190013
2748.065865,2.187332
2749.994332,2.186460
2751.922800,2.186533
2753.851267,2.186030
2755.779734,2.184591
2757.708201,2.182859
2759.636669,2.181226
2761.565136,2.179510
2763.493603,2.177518
2765.422071,2.175342
2767.350538,2.173054
2769.279005,2.170260
2771.207472,2.166451
2773.135940,2.162375
2775.064407,2.159865
2776.992874,2.159237
2778.921341,2.158694
2780.849809,2.156977
2782.778276,2.154181
2784.706743,2.150164
2786.635211,2.144908
2788.563678,2.140066
2790.492145,2.137529
2792.420612,2.136688
2794.349080,2.135312
2796.277547,2.132881
2798.206014,2.131095
2800.134481,2.130873
2802.062949,2.130935
2803.991416,2.129744
2805.919883,2.126873
2807.848351,2.123022
2809.776818,2.119900
2811.705285,2.118445
2813.633752,2.117497
2815.562220,2.115617
2817.490687,2.112705
2819.419154,2.109275
2821.347621,2.105710
2823.276089,2.102299
2825.204556,2.099063
2827.133023,2.095483
2829.061491,2.090898
2830.989958,2.085122
2832.918425,2.078362
2834.846892,2.070735
2836.775360,2.062890
2838.703827,2.056558
2840.632294,2.052044
2842.560761,2.046373
2844.489229,2.036744
2846.417696,2.024326
2848.346163,2.012302
2850.274631,2.001257
2852.203098,1.988906
2854.131565,1.973623
2856.060032,1.956186
2857.988500,1.939771
2859.916967,1.929229
2861.845434,1.927830
2863.773901,1.934787
2865.702369,1.946746
2867.630836,1.959493
2869.559303,1.969027
2871.487771,1.974563
2873.416238,1.979129
2875.344705,1.984598
2877.273172,1.989058
2879.201640,1.990488
2881.130107,1.989247
2883.058574,1.986474
2884.987041,1.982737
2886.915509,1.978137
2888.843976,1.972534
2890.772443,1.965665
2892.700911,1.957556
2894.629378,1.949475
2896.557845,1.943150
2898.486312,1.938198
2900.414780,1.932445
2902.343247,1.925056
2904.271714,1.916838
2906.200181,1.907661
2908.128649,1.895975
2910.057116,1.881063
2911.985583,1.864109
2913.914051,1.846765
2915.842518,1.829680
2917.770985,1.812682
2919.699452,1.795618
2921.627920,1.779114
2923.556387,1.764978
2925.484854,1.754990
2927.413321,1.749900
2929.341789,1.750082
2931.270256,1.754828
2933.198723,1.761613
2935.127191,1.768604
2937.055658,1.776104
2938.984125,1.784043
2940.912592,1.790848
2942.841060,1.795877
2944.769527,1.800572
2946.697994,1.805887
2948.626462,1.810156
2950.554929,1.811452
2952.483396,1.811111
2954.411863,1.811739
2956.340331,1.813252
2958.268798,1.813999
2960.197265,1.813903
2962.125732,1.814447
2964.054200,1.816629
2965.982667,1.819945
2967.911134,1.823064
2969.839602,1.824378
2971.768069,1.823313
2973.696536,1.821509
2975.625003,1.820302
2977.553471,1.818979
2979.481938,1.817856
2981.410405,1.818649
2983.338872,1.820548
2985.267340,1.820685
2987.195807,1.818059
2989.124274,1.813394
2991.052742,1.807714
2992.981209,1.803001
2994.909676,1.800775
2996.838143,1.800314
2998.766611,1.799752
3000.695078,1.797193
3002.623545,1.792382
3004.552012,1.786817
3006.480480,1.779120
3008.408947,1.765323
3010.337414,1.746841
3012.265882,1.731043
3014.194349,1.722757
3016.122816,1.720982
3018.051283,1.722606
3019.979751,1.724894
3021.908218,1.726193
3023.836685,1.726984
3025.765152,1.727538
3027.693620,1.724483
3029.622087,1.716201
3031.550554,1.708807
3033.479022,1.708983
3035.407489,1.715172
3037.335956,1.720319
3039.264423,1.720107
3041.192891,1.716540
3043.121358,1.713412
3045.049825,1.710920
3046.978292,1.707594
3048.906760,1.704533
3050.835227,1.702821
3052.763694,1.699790
3054.692162,1.694507
3056.620629,1.691573
3058.549096,1.692438
3060.477563,1.690971
3062.406031,1.682915
3064.334498,1.673067
3066.262965,1.669697
3068.191432,1.674604
3070.119900,1.681591
3072.048367,1.683926
3073.976834,1.679142
3075.905302,1.668573
3077.833769,1.657205
3079.762236,1.651058
3081.690703,1.651410
3083.619171,1.654402
3085.547638,1.656273
3087.476105,1.656199
3089.404572,1.654865
3091.333040,1.652042
3093.261507,1.646830
3095.189974,1.640078
3097.118442,1.633112
3099.046909,1.626866
3100.975376,1.624351
3102.903843,1.626447
3104.832311,1.627671
3106.760778,1.624302
3108.689245,1.619366
3110.617712,1.614625
3112.546180,1.607082
3114.474647,1.596573
3116.403114,1.588123
3118.331582,1.584634
3120.260049,1.584590
3122.188516,1.586765
3124.116983,1.590431
3126.045451,1.593470
3127.973918,1.593882
3129.902385,1.591208
3131.830853,1.587601
3133.759320,1.585992
3135.687787,1.585248
3137.616254,1.582893
3139.544722,1.580510
3141.473189,1.580126
3143.401656,1.580360
3145.330123,1.579023
3147.258591,1.575018
3149.187058,1.568557
3151.115525,1.562222
3153.043993,1.559391
3154.972460,1.560106
3156.900927,1.561325
3158.829394,1.560934
3160.757862,1.559016
3162.686329,1.556311
3164.614796,1.553300
3166.543263,1.550291
3168.471731,1.547663
3170.400198,1.545495
3172.328665,1.542722
3174.257133,1.537484
3176.185600,1.530517
3178.114067,1.526268
3180.042534,1.526290
3181.971002,1.526365
3183.899469,1.524323
3185.827936,1.522664
3187.756403,1.522395
3189.684871,1.521888
3191.613338,1.519905
3193.541805,1.515591
3195.470273,1.509601
3197.398740,1.505706
3199.327207,1.506352
3201.255674,1.508783
3203.184142,1.509280
3205.112609,1.506864
3207.041076,1.502370
3208.969543,1.497620
3210.898011,1.493785
3212.826478,1.490970
3214.754945,1.489530
3216.683413,1.488709
3218.611880,1.488166
3220.540347,1.489984
3222.468814,1.493617
3224.397282,1.494900
3226.325749,1.492475
3228.254216,1.488493
3230.182683,1.484769
3232.111151,1.482633
3234.039618,1.483444
3235.968085,1.486679
3237.896553,1.489905
3239.825020,1.490550
3241.753487,1.487080
3243.681954,1.482014
3245.610422,1.481657
3247.538889,1.487528
3249.467356,1.493082
3251.395823,1.492682
3253.324291,1.488850
3255.252758,1.487945
3257.181225,1.491734
3259.109693,1.496819
3261.038160,1.500393
3262.966627,1.502314
3264.895094,1.503101
3266.823562,1.502239
3268.752029,1.498644
3270.680496,1.492990
3272.608963,1.488725
3274.537431,1.489758
3276.465898,1.496516
3278.394365,1.504860
3280.322833,1.510669
3282.251300,1.513874
3284.179767,1.516022
3286.108234,1.516403
3288.036702,1.513368
3289.965169,1.508473
3291.893636,1.506220
3293.822104,1.508583
3295.750571,1.513455
3297.679038,1.518655
3299.607505,1.522601
3301.535973,1.523332
3303.464440,1.520469
3305.392907,1.515557
3307.321374,1.511736
3309.249842,1.512617
3311.178309,1.518240
3313.106776,1.525253
3315.035244,1.531155
3316.963711,1.534994
3318.892178,1.536275
3320.820645,1.534695
3322.749113,1.531025
3324.677580,1.528363
3326.606047,1.529806
3328.534514,1.534268
3330.462982,1.537096
3332.391449,1.534726
3334.319916,1.528629
3336.248384,1.524663
3338.176851,1.526522
3340.105318,1.531559
3342.033785,1.535939
3343.962253,1.538873
3345.890720,1.540006
3347.819187,1.538827
3349.747654,1.536861
3351.676122,1.535625
3353.604589,1.534497
3355.533056,1.532916
3357.461524,1.530975
3359.389991,1.528253
3361.318458,1.524499
3363.246925,1.519827
3365.175393,1.515888
3367.103860,1.516390
3369.032327,1.522509
3370.960794,1.530272
3372.889262,1.535072
3374.817729,1.535962
3376.746196,1.534920
3378.674664,1.533433
3380.603131,1.530800
3382.531598,1.526801
3384.460065,1.524281
3386.388533,1.524208
3388.317000,1.521065
3390.245467,1.511833
3392.173934,1.503471
3394.102402,1.501560
3396.030869,1.502679
3397.959336,1.503533
3399.887804,1.504922
3401.816271,1.507557
3403.744738,1.511094
3405.673205,1.513869
3407.601673,1.514234
3409.530140,1.512818
3411.458607,1.511429
3413.387074,1.510705
3415.315542,1.507187
3417.244009,1.495574
3419.172476,1.480507
3421.100944,1.475966
3423.029411,1.484795
3424.957878,1.494124
3426.886345,1.495029
3428.814813,1.490874
3430.743280,1.487625
3432.671747,1.486670
3434.600214,1.486421
3436.528682,1.485418
3438.457149,1.481603
3440.385616,1.473090
3442.314084,1.459526
3444.242551,1.442303
3446.171018,1.432469
3448.099485,1.443867
3450.027953,1.468313
3451.956420,1.484416
3453.884887,1.486734
3455.813354,1.482220
3457.741822,1.474248
3459.670289,1.464609
3461.598756,1.458299
3463.527224,1.457383
3465.455691,1.458632
3467.384158,1.461102
3469.312625,1.465315
3471.241093,1.467586
3473.169560,1.466157
3475.098027,1.463683
3477.026495,1.456941
3478.954962,1.441328
3480.883429,1.427584
3482.811896,1.428526
3484.740364,1.436640
3486.668831,1.441537
3488.597298,1.447768
3490.525765,1.456087
3492.454233,1.456381
3494.382700,1.448017
3496.311167,1.440511
3498.239635,1.430040
3500.168102,1.405398
3502.096569,1.382009
3504.025036,1.385367
3505.953504,1.403075
3507.881971,1.409536
3509.810438,1.413594
3511.738905,1.431075
3513.667373,1.451083
3515.595840,1.458130
3517.524307,1.449690
3519.452775,1.425133
3521.381242,1.387883
3523.309709,1.354512
3525.238176,1.339331
3527.166644,1.345290
3529.095111,1.372715
3531.023578,1.409196
3532.952045,1.428890
3534.880513,1.427686
3536.808980,1.427600
3538.737447,1.431290
3540.665915,1.410646
3542.594382,1.354994
3544.522849,1.302068
3546.451316,1.295696
3548.379784,1.323545
3550.308251,1.343331
3552.236718,1.355027
3554.165185,1.378618
3556.093653,1.397526
3558.022120,1.387762
3559.950587,1.351591
3561.879055,1.285096
3563.807522,1.179658
3565.735989,1.089075
3567.664456,1.103591
3569.592924,1.216778
3571.521391,1.324131
3573.449858,1.365028
3575.378325,1.363699
3577.306793,1.355428
3579.235260,1.348669
3581.163727,1.327215
3583.092195,1.258255
3585.020662,1.147938
3586.949129,1.081027
3588.877596,1.115827
3590.806064,1.184011
3592.734531,1.201955
3594.662998,1.188693
3596.591465,1.189738
3598.519933,1.205176
3600.448400,1.229234
3602.376867,1.250406
3604.305335,1.227089
3606.233802,1.151773
3608.162269,1.082925
3610.090736,1.056959
3612.019204,1.055379
3613.947671,1.054933
3615.876138,1.036893
3617.804605,1.016283
3619.733073,1.054492
3621.661540,1.148101
3623.590007,1.183564
3625.518475,1.083930
3627.446942,0.942838
3629.375409,0.923325
3631.303876,1.039926
3633.232344,1.173956
3635.160811,1.258343
3637.089278,1.301898
3639.017745,1.317113
3640.946213,1.303489
3642.874680,1.233625
3644.803147,1.074131
3646.731615,0.874583
3648.660082,0.776417
3650.588549,0.857619
3652.517016,1.016392
3654.445484,1.117117
3656.373951,1.174723
3658.302418,1.256885
3660.230886,1.340909
3662.159353,1.377851
3664.087820,1.345354
3666.016287,1.223049
3667.944755,1.051578
3669.873222,0.933604
3671.801689,0.880808
3673.730156,0.837097
3675.658624,0.849855
3677.587091,0.980060
3679.515558,1.156906
3681.444026,1.276732
3683.372493,1.287332
3685.300960,1.176336
3687.229427,1.014168
3689.157895,0.941409
3691.086362,1.023618
3693.014829,1.179916
3694.943296,1.295175
3696.871764,1.324571
3698.800231,1.285059
3700.728698,1.238778
3702.657166,1.245640
3704.585633,1.269484
3706.514100,1.215530
3708.442567,1.080530
3710.371035,0.983854
3712.299502,1.029346
3714.227969,1.172124
3716.156436,1.275367
3718.084904,1.275263
3720.013371,1.214998
3721.941838,1.157376
3723.870306,1.136639
3725.798773,1.158723
3727.727240,1.180384
3729.655707,1.124975
3731.584175,0.984842
3733.512642,0.859796
3735.441109,0.855301
3737.369576,0.967162
3739.298044,1.063977
3741.226511,1.025223
3743.154978,0.907829
3745.083446,0.849924
3747.011913,0.845281
3748.940380,0.825907
3750.868847,0.854755
3752.797315,0.997137
3754.725782,1.159607
3756.654249,1.237712
3758.582716,1.274161
3760.511184,1.341576
3762.439651,1.402284
3764.368118,1.400747
3766.296586,1.361870
3768.225053,1.343909
3770.153520,1.394664
3772.081987,1.505119
3774.010455,1.583988
3775.938922,1.562591
3777.867389,1.493370
3779.795856,1.474137
3781.724324,1.511936
3783.652791,1.553532
3785.581258,1.594659
3787.509726,1.647694
3789.438193,1.686367
3791.366660,1.674662
3793.295127,1.595840
3795.223595,1.476538
3797.152062,1.352374
3799.080529,1.233666
3801.008996,1.174108
3802.937464,1.214655
3804.865931,1.291871
3806.794398,1.380964
3808.722866,1.514594
3810.651333,1.608118
3812.579800,1.543982
3814.508267,1.378326
3816.436735,1.247218
3818.365202,1.174250
3820.293669,1.158951
3822.222136,1.250347
3824.150604,1.399919
3826.079071,1.498938
3828.007538,1.522817
3829.936006,1.489174
3831.864473,1.413196
3833.792940,1.308216
3835.721407,1.192172
3837.649875,1.129049
3839.578342,1.176834
3841.506809,1.310033
3843.435277,1.469526
3845.363744,1.596761
3847.292211,1.597253
3849.220678,1.401449
3851.149146,1.109254
3853.077613,0.969185
3855.006080,1.109499
3856.934547,1.373458
3858.863015,1.522447
3860.791482,1.494604
3862.719949,1.404756
3864.648417,1.360997
3866.576884,1.338492
3868.505351,1.295797
3870.433818,1.293064
3872.362286,1.376752
3874.290753,1.501334
3876.219220,1.577059
3878.147687,1.548091
3880.076155,1.475102
3882.004622,1.437902
3883.933089,1.437652
3885.861557,1.476864
3887.790024,1.529294
3889.718491,1.539166
3891.646958,1.555765
3893.575426,1.623669
3895.503893,1.639874
3897.432360,1.529496
3899.360827,1.374029
3901.289295,1.285254
3903.217762,1.316534
3905.146229,1.469245
3907.074697,1.670502
3909.003164,1.814278
3910.931631,1.858458
3912.860098,1.818102
3914.788566,1.727464
3916.717033,1.652544
3918.645500,1.644494
3920.573967,1.673392
3922.502435,1.687941
3924.430902,1.697832
3926.359369,1.717985
3928.287837,1.713839
3930.216304,1.683140
3932.144771,1.688603
3934.073238,1.752539
3936.001706,1.818185
3937.930173,1.830056
3939.858640,1.789153
3941.787107,1.744455
3943.715575,1.734749
3945.644042,1.739851
3947.572509,1.736223
3949.500977,1.747693
3951.429444,1.786840
3953.357911,1.825226
3955.286378,1.841953
3957.214846,1.841590
3959.143313,1.834498
3961.071780,1.832337
3963.000247,1.843140
3964.928715,1.857263
3966.857182,1.859573
3968.785649,1.850930
3970.714117,1.840479
3972.642584,1.833795
3974.571051,1.835509
3976.499518,1.845552
3978.427986,1.854989
3980.356453,1.857864
3982.284920,1.858605
3984.213387,1.860867
3986.141855,1.860166
3988.070322,1.853338
3989.998789,1.845585
3991.927257,1.842349
3993.855724,1.843764
3995.784191,1.848785
3997.712658,1.854799
3999.641126,1.857498
4001.569593,1.856011
4003.498060,1.851163
4005.426528,1.842819
4007.354995,1.835055
4009.283462,1.834024
4011.211929,1.838284
4013.140397,1.841225
4015.068864,1.839789
4016.997331,1.835578
4018.925798,1.832359
4020.854266,1.831046
4022.782733,1.828596
4024.711200,1.825687
4026.639668,1.825881
4028.568135,1.827853
4030.496602,1.828626
4032.425069,1.828534
4034.353537,1.828329
4036.282004,1.827587
4038.210471,1.825367
4040.138938,1.819557
4042.067406,1.810227
4043.995873,1.803879
4045.924340,1.805907
4047.852808,1.811693
4049.781275,1.814247
4051.709742,1.813440
4053.638209,1.811853
4055.566677,1.809633
4057.495144,1.806261
4059.423611,1.803135
4061.352078,1.802008
4063.280546,1.802198
4065.209013,1.801831
4067.137480,1.800394
4069.065948,1.798202
4070.994415,1.795445
4072.922882,1.792572
4074.851349,1.789546
4076.779817,1.785679
4078.708284,1.782041
4080.636751,1.780674
4082.565218,1.780402
4084.493686,1.778261
4086.422153,1.774867
4088.350620,1.773335
4090.279088,1.773991
4092.207555,1.774478
4094.136022,1.773717
4096.064489,1.772360
4097.992957,1.770770
4099.921424,1.768173
4101.849891,1.763346
4103.778358,1.757455
4105.706826,1.754527
4107.635293,1.755931
4109.563760,1.758277
4111.492228,1.758766
4113.420695,1.757767
4115.349162,1.756234
4117.277629,1.754375
4119.206097,1.752255
4121.134564,1.750177
4123.063031,1.748397
4124.991498,1.746838
4126.919966,1.745223
4128.848433,1.743034
4130.776900,1.739931
4132.705368,1.736739
4134.633835,1.734563
4136.562302,1.733111
4138.490769,1.731768
4140.419237,1.730757
4142.347704,1.730000
4144.276171,1.728931
4146.204638,1.727403
4148.133106,1.725655
4150.061573,1.723829
4151.990040,1.721933
4153.918508,1.720045
4155.846975,1.718224
4157.775442,1.716473
4159.703909,1.714919
4161.632377,1.713551
4163.560844,1.712074
4165.489311,1.710345
4167.417778,1.708433
4169.346246,1.706412
4171.274713,1.704454
4173.203180,1.702707
4175.131648,1.701003
4177.060115,1.698986
4178.988582,1.696623
4180.917049,1.694373
4182.845517,1.692538
4184.773984,1.690814
4186.702451,1.688923
4188.630919,1.686958
4190.559386,1.684921
4192.487853,1.682807
4194.416320,1.680884
4196.344788,1.679315
4198.273255,1.677833
4200.201722,1.676056
4202.130189,1.673941
4204.058657,1.671860
4205.987124,1.670168
4207.915591,1.668746
4209.844059,1.667216
4211.772526,1.665441
4213.700993,1.663550
4215.629460,1.661726
4217.557928,1.660062
4219.486395,1.658485
4221.414862,1.656849
4223.343329,1.655131
4225.271797,1.653358
4227.200264,1.651493
4229.128731,1.649568
4231.057199,1.647725
4232.985666,1.645996
4234.914133,1.644248
4236.842600,1.642388
4238.771068,1.640442
4240.699535,1.638499
4242.628002,1.636607
4244.556469,1.634709
4246.484937,1.632687
4248.413404,1.630514
4250.341871,1.628362
4252.270339,1.626435
4254.198806,1.624717
4256.127273,1.623023
4258.055740,1.621240
4259.984208,1.619385
4261.912675,1.617518
4263.841142,1.615641
4265.769609,1.613675
4267.698077,1.611626
4269.626544,1.609675
4271.555011,1.607985
4273.483479,1.606495
4275.411946,1.604994
4277.340413,1.603341
4279.268880,1.601577
4281.197348,1.599801
4283.125815,1.598033
4285.054282,1.596243
4286.982749,1.594416
4288.911217,1.592564
4290.839684,1.590733
4292.768151,1.588949
4294.696619,1.587195
4296.625086,1.585419
4298.553553,1.583590
4300.482020,1.581702
4302.410488,1.579757
4304.338955,1.577794
4306.267422,1.575874
4308.195889,1.574007
4310.124357,1.572162
4312.052824,1.570320
4313.981291,1.568486
4315.909759,1.566685
4317.838226,1.564933
4319.766693,1.563176
4321.695160,1.561331
4323.623628,1.559408
4325.552095,1.557526
4327.480562,1.555729
4329.409029,1.553925
4331.337497,1.552041
4333.265964,1.550136
4335.194431,1.548320
4337.122899,1.546570
4339.051366,1.544755
4340.979833,1.542863
4342.908300,1.541022
4344.836768,1.539275
4346.765235,1.537537
4348.693702,1.535744
4350.622169,1.533898
4352.550637,1.532025
4354.479104,1.530157
4356.407571,1.528347
4358.336039,1.526586
4360.264506,1.524797
4362.192973,1.522939
4364.121440,1.521038
4366.049908,1.519155
4367.978375,1.517351
4369.906842,1.515634
4371.835310,1.513966
4373.763777,1.512314
4375.692244,1.510669
4377.620711,1.509027
4379.549179,1.507352
4381.477646,1.505618
4383.406113,1.503864
4385.334580,1.502113
4387.263048,1.500330
4389.191515,1.498490
4391.119982,1.496637
4393.048450,1.494831
4394.976917,1.493101
4396.905384,1.491439
4398.833851,1.489780
4400.762319,1.488060
4402.690786,1.486289
4404.619253,1.484501
4406.547720,1.482697
4408.476188,1.480886
4410.404655,1.479066
4412.333122,1.477216
4414.261590,1.475367
4416.190057,1.473567
4418.118524,1.471831
4420.046991,1.470122
4421.975459,1.468382
4423.903926,1.466570
4425.832393,1.464707
4427.760860,1.462914
4429.689328,1.461269
4431.617795,1.459664
4433.546262,1.457969
4435.474730,1.456194
4437.403197,1.454401
4439.331664,1.452602
4441.260131,1.450790
4443.188599,1.448968
4445.117066,1.447149
4447.045533,1.445297
4448.974000,1.443416
4450.902468,1.441578
4452.830935,1.439819
4454.759402,1.438076
4456.687870,1.436289
4458.616337,1.434475
4460.544804,1.432678
4462.473271,1.430884
4464.401739,1.429041
4466.330206,1.427161
4468.258673,1.425326
4470.187140,1.423573
4472.115608,1.421867
4474.044075,1.420174
4475.972542,1.418474
4477.901010,1.416734
4479.829477,1.414950
4481.757944,1.413111
4483.686411,1.411207
4485.614879,1.409266
4487.543346,1.407346
4489.471813,1.405478
4491.400280,1.403639
4493.328748,1.401800
4495.257215,1.399991
4497.185682,1.398238
4499.114150,1.396503
4501.042617,1.394732
4502.971084,1.392925
4504.899551,1.391117
4506.828019,1.389344
4508.756486,1.387570
4510.684953,1.385741
4512.613420,1.383863
4514.541888,1.381993
4516.470355,1.380155
4518.398822,1.378338
4520.327290,1.376528
4522.255757,1.374712
4524.184224,1.372913
4526.112691,1.371177
4528.041159,1.369489
4529.969626,1.367778
4531.898093,1.365975
4533.826560,1.364074
4535.755028,1.362176
4537.683495,1.360397
4539.611962,1.358695
4541.540430,1.356947
4543.468897,1.355088
4545.397364,1.353158
4547.325831,1.351257
4549.254299,1.349441
4551.182766,1.347687
4553.111233,1.345959
4555.039701,1.344236
4556.968168,1.342502
4558.896635,1.340759
4560.825102,1.339003
4562.753570,1.337198
4564.682037,1.335342
4566.610504,1.333525
4568.538971,1.331808
4570.467439,1.330090
4572.395906,1.328274
4574.324373,1.326418
4576.252841,1.324638
4578.181308,1.322928
4580.109775,1.321194
4582.038242,1.319399
4583.966710,1.317575
4585.895177,1.315754
4587.823644,1.313951
4589.752111,1.312151
4591.680579,1.310338
4593.609046,1.308493
4595.537513,1.306588
4597.465981,1.304623
4599.394448,1.302665
4601.322915,1.300770
4603.251382,1.298931
4605.179850,1.297079
4607.108317,1.295166
4609.036784,1.293210
4610.965251,1.291246
4612.893719,1.289273
4614.822186,1.287278
4616.750653,1.285258
4618.679121,1.283253
4620.607588,1.281302
4622.536055,1.279406
4624.464522,1.277558
4626.392990,1.275757
4628.321457,1.273963
4630.249924,1.272128
4632.178391,1.270234
4634.106859,1.268300
4636.035326,1.266343
4637.963793,1.264402
4639.892261,1.262504
4641.820728,1.260606
4643.749195,1.258672
4645.677662,1.256752
4647.606130,1.254884
4649.534597,1.253046
4651.463064,1.251166
4653.391531,1.249201
4655.319999,1.247168
4657.248466,1.245106
4659.176933,1.243034
4661.105401,1.240991
4663.033868,1.239016
4664.962335,1.237121
4666.890802,1.235236
4668.819270,1.233281
4670.747737,1.231269
4672.676204,1.229287
4674.604671,1.227347
4676.533139,1.225381
4678.461606,1.223376
4680.390073,1.221429
4682.318541,1.219585
4684.247008,1.217777
4686.175475,1.215944
4688.103942,1.214137
4690.032410,1.212472
4691.960877,1.211017
4693.889344,1.209680
4695.817811,1.208190
4697.746279,1.206212
4699.674746,1.203733
4701.603213,1.201075
4703.531681,1.198469
4705.460148,1.195963
4707.388615,1.193603
4709.317082,1.191402
4711.245550,1.189306
4713.174017,1.187231
4715.102484,1.185150
4717.030951,1.183077
4718.959419,1.181032
4720.887886,1.179008
4722.816353,1.177004
4724.744821,1.175018
4726.673288,1.173088
4728.601755,1.171239
4730.530222,1.169425
4732.458690,1.167591
4734.387157,1.165745
4736.315624,1.163928
4738.244092,1.162168
4740.172559,1.160461
4742.101026,1.158783
4744.029493,1.157094
4745.957961,1.155378
4747.886428,1.153633
4749.814895,1.151875
4751.743362,1.150146
4753.671830,1.148490
4755.600297,1.146873
4757.528764,1.145272
4759.457232,1.143673
4761.385699,1.142040
4763.314166,1.140336
4765.242633,1.138544
4767.171101,1.136683
4769.099568,1.134795
4771.028035,1.132858
4772.956502,1.130840
4774.884970,1.128766
4776.813437,1.126711
4778.741904,1.124691
4780.670372,1.122655
4782.598839,1.120564
4784.527306,1.118447
4786.455773,1.116325
4788.384241,1.114217
4790.312708,1.112111
4792.241175,1.109980
4794.169642,1.107820
4796.098110,1.105641
4798.026577,1.103466
4799.955044,1.101346
4801.883512,1.099281
4803.811979,1.097211
4805.740446,1.095071
4807.668913,1.092889
4809.597381,1.090748
4811.525848,1.088673
4813.454315,1.086609
4815.382782,1.084512
4817.311250,1.082368
4819.239717,1.080232
4821.168184,1.078132
4823.096652,1.076035
4825.025119,1.073914
4826.953586,1.071799
4828.882053,1.069718
4830.810521,1.067663
4832.738988,1.065582
4834.667455,1.063452
4836.595922,1.061268
4838.524390,1.059092
4840.452857,1.056981
4842.381324,1.054888
4844.309792,1.052727
4846.238259,1.050504
4848.166726,1.048287
4850.095193,1.046158
4852.023661,1.044126
4853.952128,1.042114
4855.880595,1.040032
4857.809062,1.037855
4859.737530,1.035648
4861.665997,1.033508
4863.594464,1.031416
4865.522932,1.029290
4867.451399,1.027112
4869.379866,1.024952
4871.308333,1.022848
4873.236801,1.020751
4875.165268,1.018626
4877.093735,1.016522
4879.022202,1.014450
4880.950670,1.012368
4882.879137,1.010260
4884.807604,1.008149
4886.736072,1.006029
4888.664539,1.003889
4890.593006,1.001743
4892.521473,0.999610
4894.449941,0.997495
4896.378408,0.995412
4898.306875,0.993315
4900.235343,0.991157
4902.163810,0.988950
4904.092277,0.986752
4906.020744,0.984614
4907.949212,0.982548
4909.877679,0.980503
4911.806146,0.978451
4913.734613,0.976379
4915.663081,0.974269
4917.591548,0.972138
4919.520015,0.970011
4921.448483,0.967864
4923.376950,0.965682
4925.305417,0.963482
4927.233884,0.961321
4929.162352,0.959214
4931.090819,0.957125
4933.019286,0.954998
4934.947753,0.952808
4936.876221,0.950568
4938.804688,0.948312
4940.733155,0.946064
4942.661623,0.943881
4944.590090,0.941774
4946.518557,0.939670
4948.447024,0.937496
4950.375492,0.935230
4952.303959,0.932902
4954.232426,0.930605
4956.160893,0.928390
4958.089361,0.926244
4960.017828,0.924083
4961.946295,0.921887
4963.874763,0.919722
4965.803230,0.917626
4967.731697,0.915563
4969.660164,0.913528
4971.588632,0.911518
4973.517099,0.909494
4975.445566,0.907393
4977.374033,0.905203
4979.302501,0.902950
4981.230968,0.900658
4983.159435,0.898336
4985.087903,0.896001
4987.016370,0.893674
4988.944837,0.891425
4990.873304,0.889284
4992.801772,0.887230
4994.730239,0.885217
4996.658706,0.883200
4998.587173,0.881151
5000.515641,0.879062
5002.444108,0.876907
5004.372575,0.874736
5006.301043,0.872606
5008.229510,0.870498
5010.157977,0.868345
5012.086444,0.866131
5014.014912,0.863954
5015.943379,0.861910
5017.871846,0.859874
5019.800313,0.857651
5021.728781,0.855226
5023.657248,0.852854
5025.585715,0.850745
5027.514183,0.848729
5029.442650,0.846536
5031.371117,0.844256
5033.299584,0.842093
5035.228052,0.840027
5037.156519,0.837912
5039.084986,0.835707
5041.013453,0.833454
5042.941921,0.831205
5044.870388,0.828901
5046.798855,0.826412
5048.727323,0.823855
5050.655790,0.821629
5052.584257,0.819782
5054.512724,0.817958
5056.441192,0.815947
5058.369659,0.813795
5060.298126,0.811549
5062.226593,0.809226
5064.155061,0.806895
5066.083528,0.804626
5068.011995,0.802265
5069.940463,0.799728
5071.868930,0.797366
5073.797397,0.795457
5075.725864,0.793706
5077.654332,0.791714
5079.582799,0.789469
5081.511266,0.787199
5083.439734,0.784948
5085.368201,0.782626
5087.296668,0.780197
5089.225135,0.777609
5091.153603,0.774846
5093.082070,0.772146
5095.010537,0.769799
5096.939004,0.767888
5098.867472,0.766159
5100.795939,0.764187
5102.724406,0.761830
5104.652874,0.759390
5106.581341,0.757107
5108.509808,0.754844
5110.438275,0.752414
5112.366743,0.749927
5114.295210,0.747308
5116.223677,0.744337
5118.152144,0.741654
5120.080612,0.740255
5122.009079,0.739676
5123.937546,0.738522
5125.866014,0.736331
5127.794481,0.733481
5129.722948,0.730244
5131.651415,0.727093
5133.579883,0.724808
5135.508350,0.723166
5137.436817,0.720440
5139.365284,0.716067
5141.293752,0.712493
5143.222219,0.711727
5145.150686,0.711931
5147.079154,0.710290
5149.007621,0.706691
5150.936088,0.702195
5152.864555,0.696783
5154.793023,0.691551
5156.721490,0.689011
5158.649957,0.688299
5160.578424,0.685944
5162.506892,0.682940
5164.435359,0.682730
5166.363826,0.683228
5168.292294,0.680781
5170.220761,0.677722
5172.149228,0.676868
5174.077695,0.676035
5176.006163,0.673158
5177.934630,0.669399
5179.863097,0.664874
5181.791564,0.657888
5183.720032,0.650676
5185.648499,0.648324
5187.576966,0.650984
5189.505434,0.654829
5191.433901,0.655846
5193.362368,0.650518
5195.290835,0.642071
5197.219303,0.639776
5199.147770,0.643701
5201.076237,0.640333
5203.004704,0.620196
5204.933172,0.594981
5206.861639,0.587521
5208.790106,0.603142
5210.718574,0.624319
5212.647041,0.634182
5214.575508,0.631103
5216.503975,0.623476
5218.432443,0.618340
5220.360910,0.612475
5222.289377,0.599698
5224.217844,0.587508
5226.146312,0.587562
5228.074779,0.594497
5230.003246,0.597681
5231.931714,0.599379
5233.860181,0.603811
5235.788648,0.607802
5237.717115,0.607568
5239.645583,0.600188
5241.574050,0.584081
5243.502517,0.564572
5245.430984,0.551381
5247.359452,0.551683
5249.287919,0.562493
5251.216386,0.569096
5253.144854,0.566136
5255.073321,0.566089
5257.001788,0.571028
5258.930255,0.566131
5260.858723,0.549033
5262.787190,0.536898
5264.715657,0.540930
5266.644125,0.553382
5268.572592,0.563842
5270.501059,0.571189
5272.429526,0.575879
5274.357994,0.576076
5276.286461,0.571579
5278.214928,0.564808
5280.143395,0.558601
5282.071863,0.554014
5284.000330,0.550794
5285.928797,0.546633
5287.857265,0.539737
5289.785732,0.536421
5291.714199,0.542761
5293.642666,0.551737
5295.571134,0.553684
5297.499601,0.549448
5299.428068,0.545223
5301.356535,0.542586
5303.285003,0.537087
5305.213470,0.528143
5307.141937,0.524197
5309.070405,0.529368
5310.998872,0.535423
5312.927339,0.535266
5314.855806,0.531930
5316.784274,0.530520
5318.712741,0.530904
5320.641208,0.529210
5322.569675,0.520971
5324.498143,0.506380
5326.426610,0.494523
5328.355077,0.492763
5330.283545,0.495779
5332.212012,0.493665
5334.140479,0.481045
5336.068946,0.463304
5337.997414,0.455462
5339.925881,0.457872
5341.854348,0.454824
5343.782815,0.448574
5345.711283,0.453979
5347.639750,0.465361
5349.568217,0.465765
5351.496685,0.456681
5353.425152,0.455938
5355.353619,0.470007
5357.282086,0.484866
5359.210554,0.487821
5361.139021,0.481818
5363.067488,0.476838
5364.995955,0.477793
5366.924423,0.481297
5368.852890,0.481074
5370.781357,0.472836
5372.709825,0.456619
5374.638292,0.441451
5376.566759,0.440122
5378.495226,0.451578
5380.423694,0.459177
5382.352161,0.453189
5384.280628,0.443726
5386.209095,0.444074
5388.137563,0.449434
5390.066030,0.445042
5391.994497,0.431409
5393.922965,0.424255
5395.851432,0.430887
5397.779899,0.442550
5399.708366,0.448479
5401.636834,0.447192
5403.565301,0.442723
5405.493768,0.434736
5407.422235,0.419890
5409.350703,0.401783
5411.279170,0.390592
5413.207637,0.394246
5415.136105,0.410693
5417.064572,0.427681
5418.993039,0.435220
5420.921506,0.434097
5422.849974,0.427315
5424.778441,0.413834
5426.706908,0.397571
5428.635375,0.389671
5430.563843,0.391423
5432.492310,0.393238
5434.420777,0.394115
5436.349245,0.396491
5438.277712,0.394164
5440.206179,0.386193
5442.134646,0.379866
5444.063114,0.377684
5445.991581,0.379026
5447.920048,0.384624
5449.848516,0.392896
5451.776983,0.398985
5453.705450,0.399067
5455.633917,0.394025
5457.562385,0.386726
5459.490852,0.380249
5461.419319,0.378169
5463.347786,0.379870
5465.276254,0.381122
5467.204721,0.381605
5469.133188,0.382296
5471.061656,0.378719
5472.990123,0.369469
5474.918590,0.364624
5476.847057,0.370924
5478.775525,0.380401
5480.703992,0.384049
5482.632459,0.381535
5484.560926,0.375185
5486.489394,0.367144
5488.417861,0.359543
5490.346328,0.353997
5492.274796,0.353411
5494.203263,0.358608
5496.131730,0.364314
5498.060197,0.366218
5499.988665,0.365411
5501.917132,0.363092
5503.845599,0.359027
5505.774066,0.355002
5507.702534,0.354134
5509.631001,0.356277
5511.559468,0.357438
5513.487936,0.355538
5515.416403,0.352650
5517.344870,0.350667
5519.273337,0.349170
5521.201805,0.348120
5523.130272,0.348144
5525.058739,0.348428
5526.987206,0.347716
5528.915674,0.346135
5530.844141,0.344037
5532.772608,0.341378
5534.701076,0.338841
5536.629543,0.337679
5538.558010,0.337806
5540.486477,0.337739
5542.414945,0.336544
5544.343412,0.334559
5546.271879,0.332401
5548.200346,0.330416
5550.128814,0.328703
5552.057281,0.327426
5553.985748,0.326775
5555.914216,0.326520
5557.842683,0.326025
5559.771150,0.324949
5561.699617,0.323413
5563.628085,0.321778
5565.556552,0.320313
5567.485019,0.319018
5569.413486,0.317757
5571.341954,0.316477
5573.270421,0.315148
5575.198888,0.313867
5577.127356,0.312684
5579.055823,0.311527
5580.984290,0.310334
5582.912757,0.309128
5584.841225,0.307936
5586.769692,0.306760
5588.698159,0.305537
5590.626626,0.304278
5592.555094,0.302963
5594.483561,0.301619
5596.412028,0.300300
5598.340496,0.298950
5600.268963,0.297540
5602.197430,0.296290
5604.125897,0.295293
5606.054365,0.294375
5607.982832,0.293294
5609.911299,0.292010
5611.839767,0.290659
5613.768234,0.289405
5615.696701,0.288273
5617.625168,0.287156
5619.553636,0.285949
5621.482103,0.284762
5623.410570,0.283659
5625.339037,0.282544
5627.267505,0.281347
5629.195972,0.280144
5631.124439,0.278993
5633.052907,0.277875
5634.981374,0.276722
5636.909841,0.275588
5638.838308,0.274495
5640.766776,0.273398
5642.695243,0.272273
5644.623710,0.271132
5646.552177,0.269992
5648.480645,0.268894
5650.409112,0.267804
5652.337579,0.266741
5654.266047,0.265698
5656.194514,0.264634
5658.122981,0.263480
5660.051448,0.262218
5661.979916,0.260987
5663.908383,0.259973
5665.836850,0.259066
5667.765317,0.258108
5669.693785,0.257077
5671.622252,0.256041
5673.550719,0.255027
5675.479187,0.254001
5677.407654,0.252936
5679.336121,0.251891
5681.264588,0.250868
5683.193056,0.249853
5685.121523,0.248808
5687.049990,0.247737
5688.978457,0.246692
5690.906925,0.245698
5692.835392,0.244713
5694.763859,0.243717
5696.692327,0.242693
5698.620794,0.241710
5700.549261,0.240794
5702.477728,0.239896
5704.406196,0.238956
5706.334663,0.237960
5708.263130,0.236944
5710.191597,0.235974
5712.120065,0.235020
5714.048532,0.234082
5715.976999,0.233161
5717.905467,0.232234
5719.833934,0.231252
5721.762401,0.230225
5723.690868,0.229235
5725.619336,0.228364
5727.547803,0.227519
5729.476270,0.226629
5731.404737,0.225720
5733.333205,0.224851
5735.261672,0.224011
5737.190139,0.223146
5739.118607,0.222237
5741.047074,0.221357
5742.975541,0.220515
5744.904008,0.219691
5746.832476,0.218854
5748.760943,0.218013
5750.689410,0.217169
5752.617877,0.216313
5754.546345,0.215449
5756.474812,0.214618
5758.403279,0.213786
5760.331747,0.212943
5762.260214,0.212108
5764.188681,0.211295
5766.117148,0.210497
5768.045616,0.209684
5769.974083,0.208845
5771.902550,0.208031
5773.831017,0.207235
5775.759485,0.206438
5777.687952,0.205622
5779.616419,0.204804
5781.544887,0.204007
5783.473354,0.203219
5785.401821,0.202429
5787.330288,0.201661
5789.258756,0.200892
5791.187223,0.200130
5793.115690,0.199369
5795.044158,0.198603
5796.972625,0.197835
5798.901092,0.197068
5800.829559,0.196291
5802.758027,0.195530
5804.686494,0.194761
5806.614961,0.193997
5808.543428,0.193249
5810.471896,0.192521
5812.400363,0.191803
5814.328830,0.191082
5816.257298,0.190354
5818.185765,0.189646
5820.114232,0.188936
5822.042699,0.188221
5823.971167,0.187494
5825.899634,0.186756
5827.828101,0.186030
5829.756568,0.185322
5831.685036,0.184608
5833.613503,0.183907
5835.541970,0.183207
5837.470438,0.182516
5839.398905,0.181829
5841.327372,0.181129
5843.255839,0.180404
5845.184307,0.179669
5847.112774,0.178949
5849.041241,0.178271
5850.969708,0.177604
5852.898176,0.176933
5854.826643,0.176253
5856.755110,0.175578
5858.683578,0.174908
5860.612045,0.174235
5862.540512,0.173561
5864.468979,0.172914
5866.397447,0.172265
5868.325914,0.171603
5870.254381,0.170937
5872.182848,0.170278
5874.111316,0.169628
5876.039783,0.168982
5877.968250,0.168338
5879.896718,0.167706
5881.825185,0.167069
5883.753652,0.166427
5885.682119,0.165786
5887.610587,0.165162
5889.539054,0.164563
5891.467521,0.163974
5893.395988,0.163368
5895.324456,0.162747
5897.252923,0.162110
5899.181390,0.161485
5901.109858,0.160883
5903.038325,0.160296
5904.966792,0.159709
5906.895259,0.159113
5908.823727,0.158509
5910.752194,0.157910
5912.680661,0.157302
5914.609128,0.156689
5916.537596,0.156082
5918.466063,0.155481
5920.394530,0.154878
5922.322998,0.154280
5924.251465,0.153687
5926.179932,0.153105
5928.108399,0.152517
5930.036867,0.151927
5931.965334,0.151338
5933.893801,0.150749
5935.822268,0.150157
5937.750736,0.149574
5939.679203,0.149009
5941.607670,0.148462
5943.536138,0.147907
5945.464605,0.147339
5947.393072,0.146765
5949.321539,0.146195
5951.250007,0.145636
5953.178474,0.145081
5955.106941,0.144514
5957.035408,0.143943
5958.963876,0.143367
5960.892343,0.142800
5962.820810,0.142250
5964.749278,0.141717
5966.677745,0.141186
5968.606212,0.140648
5970.534679,0.140108
5972.463147,0.139569
5974.391614,0.139021
5976.320081,0.138477
5978.248549,0.137948
5980.177016,0.137423
5982.105483,0.136897
5984.033950,0.136368
5985.962418,0.135826
5987.890885,0.135267
5989.819352,0.134702
5991.747819,0.134157
5993.676287,0.133633
5995.604754,0.133113
5997.533221,0.132593
5999.461689,0.132072
6001.390156,0.131556
6003.318623,0.131058
6005.247090,0.130558
6007.175558,0.130041
6009.104025,0.129507
6011.032492,0.128978
6012.960959,0.128471
6014.889427,0.127985
6016.817894,0.127501
6018.746361,0.127013
6020.674829,0.126514
6022.603296,0.126002
6024.531763,0.125480
6026.460230,0.124958
6028.388698,0.124439
6030.317165,0.123915
6032.245632,0.123389
6034.174099,0.122877
6036.102567,0.122372
6038.031034,0.121870
6039.959501,0.121375
6041.887969,0.120885
6043.816436,0.120397
6045.744903,0.119914
6047.673370,0.119431
6049.601838,0.118933
6051.530305,0.118416
6053.458772,0.117911
6055.387239,0.117440
6057.315707,0.116988
6059.244174,0.116519
6061.172641,0.116019
6063.101109,0.115508
6065.029576,0.115012
6066.958043,0.114529
6068.886510,0.114048
6070.814978,0.113566
6072.743445,0.113087
6074.671912,0.112607
6076.600379,0.112128
6078.528847,0.111652
6080.457314,0.111185
6082.385781,0.110716
6084.314249,0.110242
6086.242716,0.109775
6088.171183,0.109320
6090.099650,0.108864
6092.028118,0.108397
6093.956585,0.107926
6095.885052,0.107451
6097.813519,0.106974
6099.741987,0.106511
6101.670454,0.106059
6103.598921,0.105605
6105.527389,0.105147
6107.455856,0.104697
6109.384323,0.104251
6111.312790,0.103786
6113.241258,0.103300
6115.169725,0.102819
6117.098192,0.102360
6119.026659,0.101901
6120.955127,0.101436
6122.883594,0.100987
6124.812061,0.100569
6126.740529,0.100158
6128.668996,0.099725
6130.597463,0.099266
6132.525930,0.098794
6134.454398,0.098324
6136.382865,0.097869
6138.311332,0.097427
6140.239799,0.096990
6142.168267,0.096553
6144.096734,0.096118
6146.025201,0.095685
6147.953669,0.095250
6149.882136,0.094813
6151.810603,0.094380
6153.739070,0.093959
6155.667538,0.093543
6157.596005,0.093120
6159.524472,0.092686
6161.452940,0.092240
6163.381407,0.091781
6165.309874,0.091319
6167.238341,0.090872
6169.166809,0.090448
6171.095276,0.090040
6173.023743,0.089638
6174.952210,0.089232
6176.880678,0.088819
6178.809145,0.088403
6180.737612,0.087988
6182.666080,0.087573
6184.594547,0.087155
6186.523014,0.086740
6188.451481,0.086327
6190.379949,0.085903
6192.308416,0.085473
6194.236883,0.085056
6196.165350,0.084661
6198.093818,0.084267
6200.022285,0.083854
6201.950752,0.083425
6203.879220,0.082997
6205.807687,0.082584
6207.736154,0.082185
6209.664621,0.081793
6211.593089,0.081392
6213.521556,0.080984
6215.450023,0.080578
6217.378490,0.080184
6219.306958,0.079796
6221.235425,0.079408
6223.163892,0.079017
6225.092360,0.078626
6227.020827,0.078239
6228.949294,0.077848
6230.877761,0.077449
6232.806229,0.077050
6234.734696,0.076654
6236.663163,0.076258
6238.591630,0.075864
6240.520098,0.075486
6242.448565,0.075115
6244.377032,0.074732
6246.305500,0.074334
6248.233967,0.073939
6250.162434,0.073548
6252.090901,0.073159
6254.019369,0.072780
6255.947836,0.072413
6257.876303,0.072049
6259.804770,0.071688
6261.733238,0.071329
6263.661705,0.070961
6265.590172,0.070572
6267.518640,0.070176
6269.447107,0.069790
6271.375574,0.069422
6273.304041,0.069061
6275.232509,0.068700
6277.160976,0.068335
6279.089443,0.067972
6281.017910,0.067614
6282.946378,0.067255
6284.874845,0.066891
6286.803312,0.066530
6288.731780,0.066177
6290.660247,0.065825
6292.588714,0.065467
6294.517181,0.065107
6296.445649,0.064749
6298.374116,0.064396
6300.302583,0.064049
6302.231050,0.063703
6304.159518,0.063352
6306.087985,0.062999
6308.016452,0.062650
6309.944920,0.062306
6311.873387,0.061962
6313.801854,0.061617
6315.730321,0.061275
6317.658789,0.060937
6319.587256,0.060597
6321.515723,0.060254
6323.444191,0.059912
6325.372658,0.059573
6327.301125,0.059239
6329.229592,0.058909
6331.158060,0.058582
6333.086527,0.058260
6335.014994,0.057940
6336.943461,0.057615
6338.871929,0.057283
6340.800396,0.056947
6342.728863,0.056614
6344.657331,0.056286
6346.585798,0.055964
6348.514265,0.055646
6350.442732,0.055335
6352.371200,0.055028
6354.299667,0.054713
6356.228134,0.054384
6358.156601,0.054053
6360.085069,0.053732
6362.013536,0.053419
6363.942003,0.053110
6365.870471,0.052805
6367.798938,0.052498
6369.727405,0.052182
6371.655872,0.051862
6373.584340,0.051551
6375.512807,0.051248
6377.441274,0.050946
6379.369741,0.050648
6381.298209,0.050354
6383.226676,0.050058
6385.155143,0.049756
6387.083611,0.049454
6389.012078,0.049158
6390.940545,0.048868
6392.869012,0.048578
6394.797480,0.048279
6396.725947,0.047975
6398.654414,0.047673
6400.582881,0.047373
6402.511349,0.047071
6404.439816,0.046772
6406.368283,0.046484
6408.296751,0.046211
6410.225218,0.045942
6412.153685,0.045669
6414.082152,0.045388
6416.010620,0.045101
6417.939087,0.044810
6419.867554,0.044517
6421.796021,0.044234
6423.724489,0.043967
6425.652956,0.043707
6427.581423,0.043434
6429.509891,0.043147
6431.438358,0.042865
6433.366825,0.042598
6435.295292,0.042341
6437.223760,0.042084
6439.152227,0.041823
6441.080694,0.041556
6443.009161,0.041288
6444.937629,0.041019
6446.866096,0.040752
6448.794563,0.040492
6450.723031,0.040236
6452.651498,0.039981
6454.579965,0.039726
6456.508432,0.039471
6458.436900,0.039216
6460.365367,0.038960
6462.293834,0.038707
6464.222301,0.038459
6466.150769,0.038212
6468.079236,0.037961
6470.007703,0.037708
6471.936171,0.037455
6473.864638,0.037207
6475.793105,0.036966
6477.721572,0.036727
6479.650040,0.036486
6481.578507,0.036243
6483.506974,0.036004
6485.435441,0.035766
6487.363909,0.035525
6489.292376,0.035280
6491.220843,0.035037
6493.149311,0.034800
6495.077778,0.034565
6497.006245,0.034330
6498.934712,0.034099
6500.863180,0.033872
6502.791647,0.033650
6504.720114,0.033427
6506.648582,0.033201
6508.577049,0.032971
6510.505516,0.032744
6512.433983,0.032520
6514.362451,0.032298
6516.290918,0.032076
6518.219385,0.031855
6520.147852,0.031633
6522.076320,0.031412
6524.004787,0.031194
6525.933254,0.030979
6527.861722,0.030766
6529.790189,0.030553
6531.718656,0.030341
6533.647123,0.030131
6535.575591,0.029922
6537.504058,0.029709
6539.432525,0.029495
6541.360992,0.029287
6543.289460,0.029087
6545.217927,0.028890
6547.146394,0.028690
6549.074862,0.028485
6551.003329,0.028273
6552.931796,0.028060
6554.860263,0.027856
6556.788731,0.027662
6558.717198,0.027471
6560.645665,0.027276
6562.574132,0.027077
6564.502600,0.026881
6566.431067,0.026687
6568.359534,0.026494
6570.288002,0.026300
6572.216469,0.026112
6574.144936,0.025929
6576.073403,0.025747
6578.001871,0.025565
6579.930338,0.025383
6581.858805,0.025195
6583.787272,0.025001
6585.715740,0.024809
6587.644207,0.024625
6589.572674,0.024446
6591.501142,0.024270
6593.429609,0.024092
6595.358076,0.023911
6597.286543,0.023727
6599.215011,0.023545
6601.143478,0.023367
6603.071945,0.023195
6605.000412,0.023027
6606.928880,0.022860
6608.857347,0.022690
6610.785814,0.022519
6612.714282,0.022352
6614.642749,0.022186
6616.571216,0.022018
6618.499683,0.021845
6620.428151,0.021674
6622.356618,0.021508
6624.285085,0.021344
6626.213552,0.021180
6628.142020,0.021016
6630.070487,0.020856
6631.998954,0.020701
6633.927422,0.020548
6635.855889,0.020392
6637.784356,0.020233
6639.712823,0.020076
6641.641291,0.019920
6643.569758,0.019765
6645.498225,0.019610
6647.426692,0.019457
6649.355160,0.019305
6651.283627,0.019154
6653.212094,0.019003
6655.140562,0.018853
6657.069029,0.018708
6658.997496,0.018564
6660.925963,0.018420
6662.854431,0.018276
6664.782898,0.018133
6666.711365,0.017990
6668.639832,0.017849
6670.568300,0.017708
6672.496767,0.017565
6674.425234,0.017421
6676.353702,0.017277
6678.282169,0.017138
6680.210636,0.017002
6682.139103,0.016869
6684.067571,0.016734
6685.996038,0.016599
6687.924505,0.016464
6689.852973,0.016332
6691.781440,0.016201
6693.709907,0.016070
6695.638374,0.015939
6697.566842,0.015805
6699.495309,0.015671
6701.423776,0.015538
6703.352243,0.015411
6705.280711,0.015290
6707.209178,0.015170
6709.137645,0.015044
6711.066113,0.014915
6712.994580,0.014794
6714.923047,0.014677
6716.851514,0.014557
6718.779982,0.014433
6720.708449,0.014309
6722.636916,0.014183
6724.565383,0.014058
6726.493851,0.013943
6728.422318,0.013836
6730.350785,0.013725
6732.279253,0.013606
6734.207720,0.013485
6736.136187,0.013371
6738.064654,0.013261
6739.993122,0.013151
6741.921589,0.013038
6743.850056,0.012919
6745.778523,0.012797
6747.706991,0.012681
6749.635458,0.012573
6751.563925,0.012463
6753.492393,0.012352
6755.420860,0.012248
6757.349327,0.012151
6759.277794,0.012053
6761.206262,0.011950
6763.134729,0.011838
6765.063196,0.011725
6766.991663,0.011624
6768.920131,0.011531
6770.848598,0.011438
6772.777065,0.011340
6774.705533,0.011242
6776.634000,0.011150
6778.562467,0.011063
6780.490934,0.010970
6782.419402,0.010868
6784.347869,0.010759
6786.276336,0.010650
6788.204803,0.010541
6790.133271,0.010439
6792.061738,0.010350
6793.990205,0.010260
6795.918673,0.010156
6797.847140,0.010055
6799.775607,0.009971
6801.704074,0.009893
6803.632542,0.009812
6805.561009,0.009736
6807.489476,0.009659
6809.417943,0.009572
6811.346411,0.009477
6813.274878,0.009382
6815.203345,0.009292
6817.131813,0.009207
6819.060280,0.009125
6820.988747,0.009041
6822.917214,0.008958
6824.845682,0.008881
6826.774149,0.008809
6828.702616,0.008731
6830.631083,0.008642
6832.559551,0.008554
6834.488018,0.008480
6836.416485,0.008414
6838.344953,0.008342
6840.273420,0.008257
6842.201887,0.008167
6844.130354,0.008076
6846.058822,0.007990
6847.987289,0.007917
6849.915756,0.007853
6851.844223,0.007787
6853.772691,0.007715
6855.701158,0.007638
6857.629625,0.007561
6859.558093,0.007489
6861.486560,0.007420
6863.415027,0.007351
6865.343494,0.007278
6867.271962,0.007200
6869.200429,0.007123
6871.128896,0.007056
6873.057364,0.006999
6874.985831,0.006941
6876.914298,0.006877
6878.842765,0.006810
6880.771233,0.006742
6882.699700,0.006674
6884.628167,0.006605
6886.556634,0.006535
6888.485102,0.006461
6890.413569,0.006384
6892.342036,0.006313
6894.270504,0.006257
6896.198971,0.006210
6898.127438,0.006163
6900.055905,0.006108
6901.984373,0.006046
6903.912840,0.005983
6905.841307,0.005920
6907.769774,0.005856
6909.698242,0.005791
6911.626709,0.005717
6913.555176,0.005633
6915.483644,0.005559
6917.412111,0.005518
6919.340578,0.005493
6921.269045,0.005457
6923.197513,0.005403
6925.125980,0.005343
6927.054447,0.005279
6928.982914,0.005218
6930.911382,0.005163
6932.839849,0.005107
6934.768316,0.005045
6936.696784,0.004992
6938.625251,0.004950
6940.553718,0.004907
6942.482185,0.004852
6944.410653,0.004795
6946.339120,0.004744
6948.267587,0.004700
6950.196054,0.004647
6952.124522,0.004585
6954.052989,0.004529
6955.981456,0.004490
6957.909924,0.004459
6959.838391,0.004418
6961.766858,0.004368
6963.695325,0.004315
6965.623793,0.004261
6967.552260,0.004204
6969.480727,0.004150
6971.409194,0.004107
6973.337662,0.004073
6975.266129,0.004032
6977.194596,0.003978
6979.123064,0.003921
6981.051531,0.003873
6982.979998,0.003834
6984.908465,0.003800
6986.836933,0.003770
6988.765400,0.003738
6990.693867,0.003697
6992.622334,0.003649
6994.550802,0.003602
6996.479269,0.003558
6998.407736,0.003516
7000.336204,0.003480
7002.264671,0.003445
7004.193138,0.003410
7006.121605,0.003370
7008.050073,0.003328
7009.978540,0.003286
7011.907007,0.003244
7013.835474,0.003209
7015.763942,0.003176
7017.692409,0.003135
7019.620876,0.003083
7021.549344,0.003034
7023.477811,0.003000
7025.406278,0.002976
7027.334745,0.002954
7029.263213,0.002926
7031.191680,0.002892
7033.120147,0.002854
7035.048615,0.002815
7036.977082,0.002776
7038.905549,0.002737
7040.834016,0.002698
7042.762484,0.002657
7044.690951,0.002619
7046.619418,0.002592
7048.547885,0.002575
7050.476353,0.002553
7052.404820,0.002523
7054.333287,0.002493
7056.261755,0.002465
7058.190222,0.002433
7060.118689,0.002397
7062.047156,0.002356
7063.975624,0.002310
7065.904091,0.002263
7067.832558,0.002222
7069.761025,0.002199
7071.689493,0.002193
7073.617960,0.002188
7075.546427,0.002170
7077.474895,0.002139
7079.403362,0.002108
7081.331829,0.002085
7083.260296,0.002064
7085.188764,0.002038
7087.117231,0.002005
7089.045698,0.001960
7090.974165,0.001901
7092.902633,0.001852
7094.831100,0.001835
7096.759567,0.001844
7098.688035,0.001845
7100.616502,0.001816
7102.544969,0.001767
7104.473436,0.001725
7106.401904,0.001710
7108.330371,0.001709
7110.258838,0.001695
7112.187305,0.001651
7114.115773,0.001590
7116.044240,0.001549
7117.972707,0.001554
7119.901175,0.001578
7121.829642,0.001586
7123.758109,0.001573
7125.686576,0.001552
7127.615044,0.001528
7129.543511,0.001497
7131.471978,0.001453
7133.400445,0.001399
7135.328913,0.001347
7137.257380,0.001310
7139.185847,0.001300
7141.114315,0.001306
7143.042782,0.001312
7144.971249,0.001318
7146.899716,0.001320
7148.828184,0.001310
7150.756651,0.001287
7152.685118,0.001258
7154.613585,0.001221
7156.542053,0.001176
7158.470520,0.001134
7160.398987,0.001113
7162.327455,0.001109
7164.255922,0.001102
7166.184389,0.001093
7168.112856,0.001098
7170.041324,0.001109
7171.969791,0.001105
7173.898258,0.001078
7175.826725,0.001036
7177.755193,0.000988
7179.683660,0.000959
7181.612127,0.000966
7183.540595,0.000989
7185.469062,0.000997
7187.397529,0.000984
7189.325996,0.000963
7191.254464,0.000941
7193.182931,0.000922
7195.111398,0.000908
7197.039865,0.000891
7198.968333,0.000864
7200.896800,0.000832
7202.825267,0.000814
7204.753735,0.000820
7206.682202,0.000831
7208.610669,0.000829
7210.539136,0.000812
7212.467604,0.000790
7214.396071,0.000767
7216.324538,0.000744
7218.253006,0.000729
7220.181473,0.000724
7222.109940,0.000718
7224.038407,0.000701
7225.966875,0.000674
7227.895342,0.000642
7229.823809,0.000619
7231.752276,0.000623
7233.680744,0.000646
7235.609211,0.000651
7237.537678,0.000623
7239.466146,0.000585
7241.394613,0.000570
7243.323080,0.000587
7245.251547,0.000610
7247.180015,0.000613
7249.108482,0.000599
7251.036949,0.000584
7252.965416,0.000579
7254.893884,0.000575
7256.822351,0.000562
7258.750818,0.000542
7260.679286,0.000527
7262.607753,0.000523
7264.536220,0.000522
7266.464687,0.000515
7268.393155,0.000506
7270.321622,0.000497
7272.250089,0.000490
7274.178556,0.000485
7276.107024,0.000479
7278.035491,0.000472
7279.963958,0.000464
7281.892426,0.000454
7283.820893,0.000444
7285.749360,0.000434
7287.677827,0.000427
7289.606295,0.000419
7291.534762,0.000408
7293.463229,0.000399
7295.391696,0.000395
7297.320164,0.000389
7299.248631,0.000381
7301.177098,0.000371
7303.105566,0.000357
7305.034033,0.000346
7306.962500,0.000343
7308.890967,0.000345
7310.819435,0.000344
7312.747902,0.000343
7314.676369,0.000341
7316.604836,0.000338
7318.533304,0.000330
7320.461771,0.000317
7322.390238,0.000304
7324.318706,0.000294
7326.247173,0.000291
7328.175640,0.000296
7330.104107,0.000302
7332.032575,0.000302
7333.961042,0.000292
7335.889509,0.000273
7337.817976,0.000255
7339.746444,0.000246
7341.674911,0.000247
7343.603378,0.000252
7345.531846,0.000255
7347.460313,0.000255
7349.388780,0.000250
7351.317247,0.000241
7353.245715,0.000233
7355.174182,0.000230
7357.102649,0.000229
7359.031116,0.000227
7360.959584,0.000223
7362.888051,0.000220
7364.816518,0.000217
7366.744986,0.000214
7368.673453,0.000212
7370.601920,0.000210
7372.530387,0.000205
7374.458855,0.000199
7376.387322,0.000194
7378.315789,0.000189
7380.244256,0.000186
7382.172724,0.000184
7384.101191,0.000183
7386.029658,0.000181
7387.958126,0.000177
7389.886593,0.000174
7391.815060,0.000171
7393.743527,0.000169
7395.671995,0.000167
7397.600462,0.000166
7399.528929,0.000163
7401.457397,0.000159
7403.385864,0.000155
7405.314331,0.000152
7407.242798,0.000151
7409.171266,0.000149
7411.099733,0.000147
7413.028200,0.000144
7414.956667,0.000141
7416.885135,0.000137
7418.813602,0.000133
7420.742069,0.000130
7422.670537,0.000126
7424.599004,0.000123
7426.527471,0.000120
7428.455938,0.000119
7430.384406,0.000118
7432.312873,0.000117
7434.241340,0.000116
7436.169807,0.000113
7438.098275,0.000111
7440.026742,0.000109
7441.955209,0.000107
7443.883677,0.000104
7445.812144,0.000101
7447.740611,0.000099
7449.669078,0.000096
7451.597546,0.000093
7453.526013,0.000091
7455.454480,0.000089
7457.382947,0.000088
7459.311415,0.000087
7461.239882,0.000086
7463.168349,0.000084
7465.096817,0.000082
7467.025284,0.000080
7468.953751,0.000077
7470.882218,0.000075
7472.810686,0.000073
7474.739153,0.000071
7476.667620,0.000069
7478.596087,0.000068
7480.524555,0.000067
7482.453022,0.000066
7484.381489,0.000064
7486.309957,0.000062
7488.238424,0.000060
7490.166891,0.000058
7492.095358,0.000057
7494.023826,0.000057
7495.952293,0.000056
7497.880760,0.000054
7499.809227,0.000052
7501.737695,0.000050
7503.666162,0.000049
7505.594629,0.000047
7507.523097,0.000046
7509.451564,0.000045
7511.380031,0.000044
7513.308498,0.000043
7515.236966,0.000042
7517.165433,0.000040
7519.093900,0.000039
7521.022367,0.000038
7522.950835,0.000038
7524.879302,0.000038
7526.807769,0.000037
7528.736237,0.000036
7530.664704,0.000035
7532.593171,0.000034
7534.521638,0.000033
7536.450106,0.000032
7538.378573,0.000030
7540.307040,0.000029
7542.235507,0.000027
7544.163975,0.000027
7546.092442,0.000026
7548.020909,0.000026
7549.949377,0.000025
7551.877844,0.000025
7553.806311,0.000024
7555.734778,0.000024
7557.663246,0.000023
7559.591713,0.000022
7561.520180,0.000022
7563.448647,0.000021
7565.377115,0.000021
7567.305582,0.000020
7569.234049,0.000018
7571.162517,0.000017
7573.090984,0.000016
7575.019451,0.000016
7576.947918,0.000015
7578.876386,0.000015
7580.804853,0.000014
7582.733320,0.000014
7584.661788,0.000014
7586.590255,0.000014
7588.518722,0.000014
7590.447189,0.000014
7592.375657,0.000013
7594.304124,0.000012
7596.232591,0.000012
7598.161058,0.000011
7600.089526,0.000011
7602.017993,0.000009
7603.946460,0.000008
7605.874928,0.000008
7607.803395,0.000007
7609.731862,0.000007
7611.660329,0.000007
7613.588797,0.000007
7615.517264,0.000006
7617.445731,0.000007
7619.374198,0.000007
7621.302666,0.000007
7623.231133,0.000007
7625.159600,0.000007
7627.088068,0.000007
7629.016535,0.000006
7630.945002,0.000005
7632.873469,0.000004
7634.801937,0.000004
7636.730404,0.000004
7638.658871,0.000003
7640.587338,0.000003
7642.515806,0.000002
7644.444273,0.000003
7646.372740,0.000003
7648.301208,0.000003
7650.229675,0.000004
7652.158142,0.000004
7654.086609,0.000004
7656.015077,0.000003
7657.943544,0.000003
7659.872011,0.000003
7661.800478,0.000002
7663.728946,0.000002
7665.657413,0.000001
7667.585880,0.000001
7669.514348,0.000001
7671.442815,0.000001
7673.371282,0.000001
7675.299749,0.000001
7677.228217,0.000001
7679.156684,0.000001
7681.085151,0.000001
7683.013618,0.000002
7684.942086,0.000002
7686.870553,0.000001
7688.799020,0.000001
7690.727488,0.000001
7692.655955,0.000001
7694.584422,0.000001
7696.512889,0.000000
7698.441357,0.000000
7700.369824,0.000000
7702.298291,0.000000
7704.226758,-0.000000
7706.155226,0.000000
7708.083693,0.000000
7710.012160,0.000000
7711.940628,0.000001
7713.869095,0.000001
7715.797562,0.000001
7717.726029,0.000001
7719.654497,0.000001
7721.582964,0.000001
7723.511431,0.000000
7725.439898,-0.000000
7727.368366,-0.000001
7729.296833,-0.000001
7731.225300,-0.000001
7733.153768,-0.000001
7735.082235,-0.000000
7737.010702,-0.000000
7738.939169,0.000000
7740.867637,0.000000
7742.796104,0.000001
7744.724571,0.000001
7746.653039,0.000001
7748.581506,0.000001
7750.509973,0.000001
7752.438440,0.000000
7754.366908,0.000000
7756.295375,-0.000000
7758.223842,-0.000001
7760.152309,-0.000001
7762.080777,-0.000001
7764.009244,-0.000001
7765.937711,-0.000001
7767.866179,-0.000000
7769.794646,0.000000
7771.723113,0.000000
7773.651580,0.000001
7775.580048,0.000001
7777.508515,0.000001
7779.436982,0.000001
7781.365449,0.000001
7783.293917,0.000000
7785.222384,-0.000000
7787.150851,-0.000000
7789.079319,-0.000001
7791.007786,-0.000001
7792.936253,-0.000001
7794.864720,-0.000001
7796.793188,-0.000000
7798.721655,-0.000000
7800.650122,0.000000
7802.578589,0.000001
7804.507057,0.000001
7806.435524,0.000001
7808.363991,0.000001
7810.292459,0.000001
7812.220926,0.000000
7814.149393,0.000000
7816.077860,-0.000000
7818.006328,-0.000000
7819.934795,-0.000001
7821.863262,-0.000001
7823.791729,-0.000001
7825.720197,-0.000001
7827.648664,-0.000000
7829.577131,0.000000
7831.505599,0.000000
7833.434066,0.000001
7835.362533,0.000001
7837.291000,0.000001
7839.219468,0.000001
7841.147935,0.000001
7843.076402,0.000001
7845.004869,0.000000
7846.933337,-0.000000
7848.861804,-0.000000
7850.790271,-0.000001
7852.718739,-0.000001
7854.647206,-0.000001
7856.575673,-0.000001
7858.504140,-0.000000
7860.432608,0.000000
7862.361075,0.000000
7864.289542,0.000001
7866.218009,0.000001
7868.146477,0.000001
7870.074944,0.000001
7872.003411,0.000001
7873.931879,0.000000
7875.860346,0.000000
7877.788813,-0.000000
7879.717280,-0.000000
7881.645748,-0.000001
7883.574215,0.000001
7885.502682,0.000001
7887.431149,0.000001
7889.359617,0.000000
7891.288084,-0.000000
7893.216551,-0.000000
7895.145019,-0.000001
7897.073486,-0.000001
